04:14:14,-0.003720998181961477,6161.0,-0.06807899475097656
04:14:15,-0.0037179981591179967,-1041.0,-0.07100200653076172
04:14:15,-0.004713998408988118,47030.0,-0.07192230224609375
04:14:15,-0.006706998567096889,44930.0,-0.072845458984375
04:14:15,-0.006700998404994607,-13402.0,-0.06976699829101562
04:14:15,-0.00769399746786803,1958.0,-0.06669044494628906
04:14:15,-0.0076869974145665765,-39069.0,-0.0676126480102539
04:14:15,-0.00867899740114808,12109.0,-0.07052898406982422
04:14:15,-0.008671997464261949,-24726.0,-0.0734395980834961
04:14:15,-0.009663998149335384,-170.0,-0.07334613800048828
04:14:15,-0.009655998554080725,20247.0,-0.07025337219238281
04:14:15,-0.009647998493164778,14123.0,-0.0711526870727539
04:14:15,-0.011637999094091356,-56462.0,-0.06904983520507812
04:14:15,-0.012625999515876174,-7283.0,-0.06694507598876953
04:14:15,-0.013613998889923096,-29775.0,-0.06183910369873047
04:14:15,-0.014601000701077282,-57376.0,-0.058730125427246094
04:14:15,-0.015587001224048436,2038.0,-0.06061267852783203
04:14:15,-0.016571999643929303,-82844.0,-0.062488555908203125
04:14:15,-0.015558001352474093,-31621.0,-0.06235790252685547
04:14:15,-0.015544001362286508,21588.0,-0.059223175048828125
04:14:15,-0.014530000975355506,-59278.0,-0.055085182189941406
04:14:15,-0.012518000672571361,-4004.0,-0.053940773010253906
04:14:15,-0.00950800022110343,-65373.0,-0.05278968811035156
04:14:15,-0.00650100049097091,-51953.0,-0.05263233184814453
04:14:15,-0.0024990004021674395,-83637.0,-0.050472259521484375
04:14:15,4.999998491257429E-4,-27353.0,-0.04830741882324219
04:14:15,0.0024969999212771654,-60045.0,-0.049137115478515625
04:14:15,0.004491999861784279,-56924.0,-0.04496479034423828
04:14:15,0.0064859997946769,-16966.0,-0.04279041290283203
04:14:15,0.00647999974898994,-14876.0,-0.04361152648925781
04:14:15,0.006473999819718301,-9708.0,-0.046423912048339844
04:14:15,0.006467999774031341,10771.0,-0.0482330322265625
04:14:15,0.005463000037707388,23081.0,-0.045040130615234375
04:14:15,0.006456999690271914,-17872.0,-0.042847633361816406
04:14:15,0.006449999753385782,48649.0,-0.04364967346191406
04:14:15,0.006441999692469835,-53724.0,-0.04445075988769531
04:14:15,0.006432999740354717,-48496.0,-0.04624652862548828
04:14:15,0.005425999988801777,-27999.0,-0.046042442321777344
04:14:15,0.005420000059530139,23181.0,-0.047832489013671875
04:14:15,0.005414000130258501,62027.0,-0.049617767333984375
04:14:15,0.006406999891623855,-44438.0,-0.05140209197998047
04:14:15,0.0064000001875683665,-1375.0,-0.05118274688720703
04:14:15,0.005394000909291208,-118972.0,-0.0529632568359375
04:14:15,0.005389001104049385,-39029.0,-0.056735992431640625
04:14:15,0.005383001174777746,42792.0,-0.06050682067871094
04:14:15,0.00537700136192143,3857.0,-0.06227302551269531
04:14:15,0.005371001432649791,-3322.0,-0.06303882598876953
04:14:15,0.005366001394577324,-113834.0,-0.06280326843261719
04:14:15,0.006357001606374979,-47150.0,-0.06556320190429688
04:14:15,0.0063360019121319056,-11246.0,-0.07131576538085938
04:14:15,0.006299002096056938,-47058.0,-0.07706356048583984
04:14:15,0.006248001707717776,-29644.0,-0.08080768585205078
04:14:15,0.00620000169146806,18408.0,-0.07955265045166016
04:14:15,0.0061770015163347125,7096.0,-0.08029937744140625
04:14:15,0.0051810018485412,42889.0,-0.08304309844970703
04:14:15,0.005189001909457147,21428.0,-0.0877828598022461
04:14:15,0.0051870017778128386,-54299.0,-0.09151935577392578
04:14:15,0.004182001459412277,-33795.0,-0.09325504302978516
04:14:15,0.004176001530140638,-34792.0,-0.09699058532714844
04:14:15,0.005167001741938293,17375.0,-0.1007242202758789
04:14:15,0.005157002015039325,-8203.0,-0.10245895385742188
04:14:15,0.005147002055309713,-70523.0,-0.10219955444335938
04:14:15,0.004137001698836684,-17237.0,-0.10393810272216797
04:14:15,0.005127001786604524,-20241.0,-0.10867881774902344
04:14:15,0.0051180016016587615,-83653.0,-0.11141777038574219
04:14:15,0.005109001649543643,-6791.0,-0.1111602783203125
04:14:15,0.005101001588627696,-19050.0,-0.1119070053100586
04:14:15,0.004094001371413469,-27196.0,-0.1126565933227539
04:14:15,0.0050860014744102955,13792.0,-0.11540794372558594
04:14:15,0.005076001398265362,4616.0,-0.11616230010986328
04:14:15,0.0050670012133196,-23977.0,-0.11492252349853516
04:14:15,0.005058001261204481,-41319.0,-0.11768436431884766
04:14:15,0.0040480009047314525,-78053.0,-0.1194467544555664
04:14:15,0.004037000937387347,-45174.0,-0.12221145629882812
04:14:15,0.00402600085362792,-75785.0,-0.12298011779785156
04:14:15,0.004014000645838678,26567.0,-0.12275218963623047
04:14:15,0.004002000438049436,-47141.0,-0.12552738189697266
04:14:15,0.0029910003067925572,-52256.0,-0.1253070831298828
04:14:15,0.002981000463478267,13219.0,-0.12409591674804688
04:14:15,0.0029700002633035183,23447.0,-0.12488746643066406
04:14:15,0.0029600002453662455,-50196.0,-0.12668418884277344
04:14:15,0.0029490002780221403,71635.0,-0.13048267364501953
04:14:15,0.0029370002448558807,-47037.0,-0.12828731536865234
04:14:15,0.003923000243958086,63537.0,-0.12610244750976562
04:14:15,0.003907000063918531,963.0,-0.12691783905029297
04:14:15,0.003891000058501959,-36910.0,-0.12874126434326172
04:14:15,0.0038739998708479106,66442.0,-0.1285724639892578
04:14:15,0.003855999617371708,24488.0,-0.12441444396972656
04:14:15,0.003838999313302338,30603.0,-0.12326431274414062
04:14:15,0.0038239991990849376,-70741.0,-0.1251211166381836
04:14:15,0.0038109991583041847,-57443.0,-0.12798118591308594
04:14:15,0.003801999264396727,29581.0,-0.1258525848388672
04:14:15,0.0027969992952421308,-154.0,-0.1237335205078125
04:14:15,0.002794999338220805,50933.0,-0.12462139129638672
04:14:15,0.002794999338220805,-35035.0,-0.1255168914794922
04:14:15,0.003795999218709767,5925.0,-0.12342071533203125
04:14:15,0.0037969992263242602,17178.0,-0.12033557891845703
04:14:15,0.002799999318085611,23247.0,-0.12025833129882812
04:14:15,0.0028049993561580777,-42220.0,-0.12418365478515625
04:14:15,0.0028099994524382055,28391.0,-0.12511444091796875
04:14:15,0.0028149994323030114,3811.0,-0.1220541000366211
04:14:15,0.002818999520968646,82618.0,-0.12000274658203125
04:14:15,0.0028229994350112975,-9506.0,-0.12195491790771484
04:14:15,0.002826999523676932,-13598.0,-0.124908447265625
04:14:15,0.001830999564845115,35562.0,-0.12286663055419922
04:14:15,0.002834999526385218,-48305.0,-0.11983203887939453
04:14:15,0.0028389996150508523,-22723.0,-0.12079811096191406
04:14:15,0.0028419996378943324,-9422.0,-0.12376022338867188
04:14:15,0.00284399971133098,-52407.0,-0.12372398376464844
04:14:15,0.0028449997771531343,-42100.0,-0.12068748474121094
04:14:15,0.002846999850589782,39776.0,-0.12164783477783203
04:14:15,0.0028489999240264297,-19634.0,-0.12260723114013672
04:14:15,0.002849999989848584,-19631.0,-0.12056255340576172
04:14:15,0.0018519998993724585,-22614.0,-0.11751937866210938
04:14:15,0.001854000031016767,-27674.0,-0.11847114562988281
04:14:15,0.002856000151950866,-983.0,-0.12241172790527344
04:14:15,0.0018590001272968948,7236.0,-0.12234878540039062
04:14:15,8.630001684650779E-4,55380.0,-0.11828327178955078
04:14:15,0.0018660002388060093,-50025.0,-0.11721038818359375
04:14:15,0.0018690003780648112,-4949.0,-0.11813163757324219
04:14:15,8.730003610253334E-4,42145.0,-0.11704254150390625
04:14:15,-1.2199964839965105E-4,-42807.0,-0.11594772338867188
04:14:15,-1.1799961794167757E-4,-47782.0,-0.11484146118164062
04:14:15,-1.1499959509819746E-4,-11923.0,-0.11772632598876953
04:14:15,-1.1199957225471735E-4,-89617.0,-0.11559867858886719
04:14:15,8.900004904717207E-4,-112000.0,-0.11046695709228516
04:14:15,0.0018910004291683435,-33119.0,-0.110321044921875
04:14:15,0.0028900005854666233,-45391.0,-0.1111612319946289
04:14:15,0.001890000537969172,-66827.0,-0.11098670959472656
04:14:15,8.900004904717207E-4,-31983.0,-0.10779953002929688
04:14:15,0.0018890004721470177,-60592.0,-0.10759830474853516
04:14:15,0.0018890004721470177,-26833.0,-0.1083822250366211
04:14:15,8.900004904717207E-4,-43181.0,-0.10515213012695312
04:14:15,8.910003816708922E-4,7018.0,-0.10191059112548828
04:14:15,0.0018910004291683435,-36997.0,-0.10065364837646484
04:14:15,-0.004102999460883439,32612.0,-0.10238170623779297
04:14:15,-0.016085000475868583,-47177.0,-0.1040964126586914
04:14:15,-0.03205099928891286,-21512.0,-0.10080432891845703
04:14:15,-0.044004001072607934,-57338.0,-0.09749889373779297
04:14:16,-0.035964999347925186,29649.0,-0.09818363189697266
04:14:16,-0.007954998291097581,88977.0,-0.09985542297363281
04:14:16,0.01403400138951838,48010.0,-0.0995168685913086
04:14:16,0.012025001109577715,105261.0,-0.09517192840576172
04:14:16,0.0030250012641772628,-38028.0,-0.09381866455078125
04:14:16,2.800102811306715E-5,36684.0,-0.09345722198486328
04:14:16,3.100105095654726E-5,58078.0,-0.09508705139160156
04:14:16,-0.0019639988895505667,-14599.0,-0.09770870208740234
04:14:16,-0.0029579990077763796,7894.0,-0.09632301330566406
04:14:16,-0.003950998769141734,-18666.0,-0.09693431854248047
04:14:16,-0.003944998839870095,-26814.0,-0.0945425033569336
04:14:16,-0.002940999111160636,29460.0,-0.09414863586425781
04:14:16,-0.002935999073088169,-7401.0,-0.09775447845458984
04:14:16,-0.004928998998366296,15062.0,-0.09835624694824219
04:14:16,-0.004921998828649521,6835.0,-0.0999593734741211
04:14:16,-0.0049159988993778825,22232.0,-0.09756946563720703
04:14:16,-0.00590899889357388,-6407.0,-0.09818363189697266
04:14:16,-0.005900998949073255,9962.0,-0.10180091857910156
04:14:16,-0.006891998928040266,-298.0,-0.10242557525634766
04:14:16,-0.00788099819328636,-38112.0,-0.103057861328125
04:14:16,-0.00886899814940989,-94370.0,-0.10170555114746094
04:14:16,-0.008856998174451292,-99359.0,-0.10236167907714844
04:14:16,-0.008844998083077371,-18481.0,-0.1050271987915039
04:14:16,-0.009831998613663018,16339.0,-0.10570526123046875
04:14:16,-0.009818998631089926,41837.0,-0.10739612579345703
04:14:16,-0.010805998812429607,-11357.0,-0.10909461975097656
04:14:16,-0.011791998986154795,75596.0,-0.1128072738647461
04:14:16,-0.012775999144650996,23354.0,-0.114532470703125
04:14:16,-0.013758998364210129,12088.0,-0.11326980590820312
04:14:16,-0.01474099955521524,-50361.0,-0.1130228042602539
04:14:16,-0.015722999582067132,-26726.0,-0.11478614807128906
04:14:16,-0.017702998011372983,34723.0,-0.12055778503417969
04:14:16,-0.018680998240597546,-34875.0,-0.12334346771240234
04:14:16,-0.019657998345792294,25509.0,-0.12014389038085938
04:14:16,-0.018635998363606632,-5188.0,-0.11895942687988281
04:14:16,-0.017615998280234635,64438.0,-0.12178516387939453
04:14:16,-0.01659699867013842,-52251.0,-0.126617431640625
04:14:16,-0.014580000308342278,-76676.0,-0.12946128845214844
04:14:16,-0.011565999826416373,-46913.0,-0.12632083892822266
04:14:16,-0.007555999094620347,256.0,-0.1241922378540039
04:14:16,-0.003549999324604869,-29386.0,-0.12607288360595703
04:14:16,-0.0015459994319826365,52536.0,-0.1299600601196289
04:14:16,4.560006782412529E-4,-44668.0,-0.13285255432128906
04:14:16,0.0024560007732361555,-37403.0,-0.12975597381591797
04:14:16,0.0034550008131191134,25027.0,-0.1276683807373047
04:14:16,0.005452001001685858,-31274.0,-0.12958431243896484
04:14:16,0.006448000785894692,-67014.0,-0.13350200653076172
04:14:16,0.00644400087185204,-31145.0,-0.1354227066040039
04:14:16,0.006440000841394067,8813.0,-0.13234996795654297
04:14:16,0.006436000927351415,20089.0,-0.13127994537353516
04:14:16,0.00643100100569427,9840.0,-0.133209228515625
04:14:16,0.006426000967621803,-1438.0,-0.1341381072998047
04:14:16,0.006421000929549336,3633.0,-0.1330699920654297
04:14:16,0.006416001007892191,-51549.0,-0.13100624084472656
04:14:16,0.0064110009698197246,-18776.0,-0.13094139099121094
04:14:16,0.006405000924132764,27240.0,-0.1328744888305664
04:14:16,0.00540000107139349,43622.0,-0.13280677795410156
04:14:16,0.0053940011421218514,18017.0,-0.1327381134033203
04:14:16,0.006387001019902527,-44347.0,-0.1316699981689453
04:14:16,0.00637900095898658,29400.0,-0.13259601593017578
04:14:16,0.005371001316234469,-45273.0,-0.13152122497558594
04:14:16,0.005364001262933016,-13489.0,-0.12844467163085938
04:14:16,0.005358001333661377,-13499.0,-0.12836265563964844
04:14:16,0.005352001287974417,-34894.0,-0.1292743682861328
04:14:16,0.0063450009329244494,46003.0,-0.129180908203125
04:14:16,0.006337001104839146,41889.0,-0.1280832290649414
04:14:16,0.006329001043923199,13206.0,-0.12498092651367188
04:14:16,0.006321001099422574,44928.0,-0.12587451934814453
04:14:16,0.0063140010461211205,-41004.0,-0.12675952911376953
04:14:16,0.006307001109234989,-49182.0,-0.12963581085205078
04:14:16,0.006300001172348857,-16408.0,-0.128509521484375
04:14:16,0.00729100126773119,113494.0,-0.12438297271728516
04:14:16,0.007278001285158098,24364.0,-0.12325096130371094
04:14:16,0.006255001062527299,23351.0,-0.124114990234375
04:14:16,0.0072140011470764875,-27814.0,-0.12796974182128906
04:14:16,0.0061620010528713465,36692.0,-0.12981605529785156
04:14:16,0.00611800083424896,18239.0,-0.12765979766845703
04:14:16,0.0061010008212178946,2855.0,-0.12550067901611328
04:14:16,0.00710400112438947,35609.0,-0.12433910369873047
04:14:16,0.006107000983320177,-3284.0,-0.12817096710205078
04:14:16,0.006101000937633216,51955.0,-0.1289958953857422
04:14:16,0.007092000916600227,-18654.0,-0.12781715393066406
04:14:16,0.007083000964485109,10034.0,-0.12463855743408203
04:14:16,0.006073000724427402,21314.0,-0.12445354461669922
04:14:16,0.007062000688165426,-18580.0,-0.124267578125
04:14:16,0.006051000556908548,-21599.0,-0.1250753402709961
04:14:16,0.006041000597178936,62298.0,-0.1268787384033203
04:14:16,0.006031000521034002,-4260.0,-0.12668132781982422
04:14:16,0.005022000754252076,-45191.0,-0.12348461151123047
04:14:16,0.0060120002599433064,-36967.0,-0.12129020690917969
04:14:16,0.006002000183798373,16251.0,-0.12109375
04:14:16,0.006991000147536397,-73796.0,-0.12389659881591797
04:14:16,0.0069800002966076136,-24679.0,-0.12469863891601562
04:14:16,0.005969999940134585,-77904.0,-0.11950874328613281
04:14:16,0.006959000078495592,-59454.0,-0.11632347106933594
04:14:16,0.005946999881416559,-13357.0,-0.11713695526123047
04:14:16,0.0059339997242204845,-38.0,-0.11895275115966797
04:14:16,0.004923000175040215,8132.0,-0.11876869201660156
04:14:16,0.004910999967250973,-18522.0,-0.11359310150146484
04:14:16,0.005897999624721706,-95230.0,-0.1094217300415039
04:14:16,0.004884999943897128,57302.0,-0.11025047302246094
04:14:16,0.004871999903116375,8211.0,-0.11008358001708984
04:14:16,0.004857999971136451,48098.0,-0.10991668701171875
04:14:16,0.0048439999227412045,-89008.0,-0.1057586669921875
04:14:16,0.005826999666169286,-67384.0,-0.10460472106933594
04:14:16,0.004808999947272241,26801.0,-0.10245227813720703
04:14:16,0.004789999919012189,-66229.0,-0.09830760955810547
04:14:16,0.0037709998432546854,-31348.0,-0.09716606140136719
04:14:16,0.0037499997997656465,10630.0,-0.09702301025390625
04:14:16,0.004728999920189381,-5697.0,-0.09688568115234375
04:14:16,0.0037089998950250447,14807.0,-0.09175395965576172
04:14:16,0.0036899999831803143,62943.0,-0.08762741088867188
04:14:16,0.0026730000390671194,-102820.0,-0.08550643920898438
04:14:16,0.002658999990671873,24132.0,-0.08638572692871094
04:14:16,0.0036459999973885715,-50626.0,-0.08626747131347656
04:14:16,0.0026359999901615083,-5563.0,-0.08115673065185547
04:14:16,0.0026290001114830375,-42407.0,-0.07605361938476562
04:14:16,0.002625000139232725,61986.0,-0.074951171875
04:14:16,0.0016240001423284411,17932.0,-0.07484912872314453
04:14:16,0.002625000197440386,62993.0,-0.07374763488769531
04:14:16,0.0016280001727864146,3576.0,-0.06865119934082031
04:14:16,0.0016310001956298947,21954.0,-0.0625600814819336
04:14:16,0.0016350002260878682,-15876.0,-0.06147003173828125
04:14:16,0.0026380002382211387,-42462.0,-0.06038188934326172
04:14:16,0.0026420002104714513,-2510.0,-0.05829620361328125
04:14:17,6.480001611635089E-4,-12670.0,-0.05321788787841797
04:14:17,6.550001562573016E-4,-7486.0,-0.050144195556640625
04:14:17,6.620001513510942E-4,-345.0,-0.05007171630859375
04:14:17,0.0016670002369210124,-9570.0,-0.047003746032714844
04:14:17,6.730001769028604E-4,1742.0,-0.044938087463378906
04:14:17,6.780001567676663E-4,-62696.0,-0.043872833251953125
04:14:17,-0.0013149998849257827,-22710.0,-0.04180908203125
04:14:17,-3.079999005421996E-4,15098.0,-0.03875160217285156
04:14:17,-3.019999712705612E-4,-42147.0,-0.035691261291503906
04:14:17,7.029999978840351E-4,32551.0,-0.037629127502441406
04:14:17,-0.0012909999932162464,-6341.0,-0.03856468200683594
04:14:17,-0.001285000063944608,-5296.0,-0.037497520446777344
04:14:17,-0.0012790001346729696,-53332.0,-0.033435821533203125
04:14:17,-0.0022720001288689673,-53249.0,-0.0313720703125
04:14:17,-0.0012660002685151994,39888.0,-0.03130531311035156
04:14:17,-2.6100018294528127E-4,-20418.0,-0.030236244201660156
04:14:17,-2.560000866651535E-4,-22407.0,-0.030164718627929688
04:14:17,7.489998242817819E-4,-17191.0,-0.03108692169189453
04:14:17,7.539998041465878E-4,3266.0,-0.029005050659179688
04:14:17,7.589998422190547E-4,37076.0,-0.02592182159423828
04:14:17,7.639998220838606E-4,-17158.0,-0.025832176208496094
04:14:17,-2.3000029614195228E-4,65749.0,-0.028734207153320312
04:14:17,-2.2400025045499206E-4,27851.0,-0.03162860870361328
04:14:17,7.809997769072652E-4,-14075.0,-0.029521942138671875
04:14:17,7.859997567720711E-4,9516.0,-0.027414321899414062
04:14:17,-0.005203000386245549,4400.0,-0.026304244995117188
04:14:17,-0.018178999656811357,8572.0,-0.026192665100097656
04:14:17,-0.03613700077403337,18836.0,-0.02607440948486328
04:14:17,-0.04708500066772103,-7723.0,-0.026952743530273438
04:14:17,-0.035044998687226325,464.0,-0.02982616424560547
04:14:17,-0.005034000147134066,4626.0,-0.029693603515625
04:14:17,0.013958000054117292,-34230.0,-0.025560379028320312
04:14:17,0.011951999680604786,64002.0,-0.025423049926757812
04:14:17,0.0029539999086409807,-7724.0,-0.02527904510498047
04:14:17,-4.00003045797348E-5,-26075.0,-0.027128219604492188
04:14:17,-0.0010330002405680716,-63852.0,-0.02697277069091797
04:14:17,-0.0020249999361112714,25224.0,-0.02381420135498047
04:14:17,-0.002017999766394496,9856.0,-0.02465343475341797
04:14:17,-0.002010999829508364,7777.0,-0.0264892578125
04:14:17,-0.003003000048920512,-98529.0,-0.028319358825683594
04:14:17,-0.0019959997152909636,-76978.0,-0.026146888732910156
04:14:17,-0.001988999778404832,-31965.0,-0.022975921630859375
04:14:17,-0.0019819996086880565,-55496.0,-0.02380084991455078
04:14:17,-0.0029739997116848826,-11488.0,-0.024621963500976562
04:14:17,-0.0029659996507689357,68330.0,-0.024442672729492188
04:14:17,-0.003957999404519796,-6384.0,-0.021264076232910156
04:14:17,-0.004948999616317451,15152.0,-0.020090103149414062
04:14:24,-0.004939999547787011,4945.0,-0.022909164428710938
04:14:24,-0.005930999759584665,-4292.0,-0.020728111267089844
04:14:24,-0.006920999730937183,59140.0,-0.020549774169921875
04:14:24,-0.00791099900379777,18097.0,-0.017370223999023438
04:14:24,-0.008899999200366437,-11655.0,-0.017189979553222656
04:14:24,-0.00888899911660701,65100.0,-0.018011093139648438
04:14:24,-0.008877999032847583,624.0,-0.014833450317382812
04:14:24,-0.009864999214187264,39535.0,-0.014657974243164062
04:14:24,-0.010850999504327774,-38196.0,-0.013484954833984375
04:14:24,-0.011835999670438468,12971.0,-0.014309883117675781
04:14:24,-0.012819999712519348,-19826.0,-0.014136314392089844
04:14:24,-0.014802000136114657,-53519.0,-0.012963294982910156
04:14:24,-0.015782000264152884,-23825.0,-0.011792182922363281
04:14:24,-0.016761998645961285,-14625.0,-0.010623931884765625
04:14:24,-0.01774099876638502,10959.0,-0.008459091186523438
04:14:24,-0.01771999872289598,14029.0,-0.006300926208496094
04:14:24,-0.01769899867940694,-6501.0,-0.008144378662109375
04:14:24,-0.016678998479619622,49799.0,-0.009991645812988281
04:14:24,-0.014659999986179173,65032.0,-0.009840011596679688
04:14:24,-0.012642999645322561,-34296.0,-0.007695198059082031
04:14:24,-0.010627999319694936,68048.0,-0.002559661865234375
04:14:24,-0.007615998852998018,54681.0,-0.00142669677734375
04:14:24,-0.0036079990677535534,16813.0,-0.004296302795410156
04:14:24,-6.039993604645133E-4,-75315.0,-0.006163597106933594
04:14:24,0.001398000749759376,18900.0,-0.006030082702636719
04:14:24,0.0033980008447542787,-35371.0,-0.003902435302734375
04:14:24,0.004397000651806593,35233.0,-0.0017757415771484375
04:14:24,0.004397000651806593,12772.0,-0.00464630126953125
04:14:24,0.0053960009245201945,-40462.0,-0.0075168609619140625
04:14:24,0.005395001033321023,1476.0,-0.008385658264160156
04:14:24,0.00539400102570653,-34290.0,-0.006258964538574219
04:14:24,0.005393001134507358,1480.0,-0.004138946533203125
04:14:24,0.0053920012433081865,-60919.0,-0.0070171356201171875
04:14:24,0.006390000926330686,8671.0,-0.010893821716308594
04:14:24,0.005389001336880028,-27076.0,-0.011773109436035156
04:14:24,0.0053870013216510415,-15780.0,-0.009653091430664062
04:14:24,0.004386001150123775,-4550.0,-0.007536888122558594
04:14:24,0.00538300140760839,-44379.0,-0.011419296264648438
04:14:24,0.005380001501180232,10914.0,-0.01529693603515625
04:14:24,0.004379001329652965,4785.0,-0.01717376708984375
04:14:24,0.004379001329652965,-108734.0,-0.01705169677734375
04:14:24,0.004380001220852137,-36054.0,-0.014928817749023438
04:14:24,0.004382001236081123,-32952.0,-0.01780223846435547
04:14:24,0.004384001134894788,-49265.0,-0.02167224884033203
04:14:24,0.0033860012190416455,-39991.0,-0.022541046142578125
04:14:24,0.003387001226656139,-42973.0,-0.024405479431152344
04:14:24,0.004387001157738268,-50055.0,-0.02227020263671875
04:14:24,0.004388001165352762,-58179.0,-0.023131370544433594
04:14:24,0.0043870010413229465,-51981.0,-0.027986526489257812
04:14:24,0.0043870010413229465,-68224.0,-0.03183746337890625
04:14:24,0.005386001314036548,-30265.0,-0.032684326171875
04:14:24,0.004379001213237643,23992.0,-0.0305328369140625
04:14:24,0.004359001177363098,51607.0,-0.031380653381347656
04:14:24,0.004322001128457487,32167.0,-0.03522014617919922
04:14:24,0.004275001119822264,-53777.0,-0.04105377197265625
04:14:24,0.004242001101374626,-30244.0,-0.041889190673828125
04:14:24,0.004239001078531146,-97756.0,-0.037726402282714844
04:14:24,0.004254001076333225,52768.0,-0.03656482696533203
04:14:24,0.004264001036062837,-7662.0,-0.03840065002441406
04:14:24,0.004265000927262008,-67962.0,-0.04323005676269531
04:14:24,0.005262001184746623,4772.0,-0.04605579376220703
04:14:24,0.005259001278318465,89733.0,-0.04587841033935547
04:14:24,0.00525400135666132,-27980.0,-0.04669761657714844
04:14:24,0.005249001318588853,-60636.0,-0.046517372131347656
04:14:24,0.0052430013893172145,-11502.0,-0.046334266662597656
04:14:24,0.005236001452431083,-30943.0,-0.04715156555175781
04:14:24,0.005230001523159444,9038.0,-0.04996490478515625
04:14:24,0.005224001593887806,26431.0,-0.05377483367919922
04:14:24,0.004219001391902566,3949.0,-0.05258464813232422
04:14:24,0.004213001346215606,-49181.0,-0.050398826599121094
04:14:24,0.0052070015808567405,-51135.0,-0.05221366882324219
04:14:24,0.004202001495286822,10358.0,-0.056026458740234375
04:14:24,0.003198001650162041,-11087.0,-0.05983734130859375
04:14:24,0.004191001527942717,-21336.0,-0.05864906311035156
04:14:24,0.005182001739740372,-50928.0,-0.055466651916503906
04:14:24,0.00517200178001076,36052.0,-0.05628395080566406
04:14:24,0.004162001656368375,-34574.0,-0.060097694396972656
04:14:24,0.004150001681409776,-29463.0,-0.06390762329101562
04:14:24,0.004137001698836684,-2787.0,-0.06371593475341797
04:14:24,0.004123001592233777,-83649.0,-0.06152629852294922
04:14:24,0.00410900148563087,-15082.0,-0.061336517333984375
04:14:24,0.0030960015719756484,-6896.0,-0.06513786315917969
04:14:24,0.004083001520484686,-5897.0,-0.06893444061279297
04:14:24,0.004069001413881779,-85735.0,-0.06873035430908203
04:14:24,0.004055001423694193,2333.0,-0.06552791595458984
04:14:24,0.0030410015024244785,-19101.0,-0.06632137298583984
04:14:24,0.0030250014970079064,-81473.0,-0.06911087036132812
04:14:24,0.004006001399829984,-40441.0,-0.07389354705810547
04:14:24,0.00398700125515461,22978.0,-0.07467365264892578
04:14:24,0.0039680011686868966,34285.0,-0.07245445251464844
04:14:24,0.003950000973418355,20035.0,-0.0742340087890625
04:14:25,0.0029340009205043316,12832.0,-0.07501029968261719
04:14:25,0.003919000853784382,-1450.0,-0.07778644561767578
04:14:25,0.0039060008130036294,-31087.0,-0.07855701446533203
04:14:25,0.0038960007950663567,-250.0,-0.08032798767089844
04:14:25,0.003889000741764903,15120.0,-0.08209896087646484
04:14:25,0.0038850007113069296,13073.0,-0.08187007904052734
04:14:25,0.004882000852376223,-42191.0,-0.08364105224609375
04:14:25,0.003881000680848956,-106579.0,-0.08540916442871094
04:14:25,0.003881000680848956,-51160.0,-0.08917427062988281
04:14:25,0.0038820006302557886,-55155.0,-0.08894157409667969
04:14:25,0.0028840007726103067,-62300.0,-0.08670902252197266
04:14:25,0.0028860007878392935,-53989.0,-0.08547401428222656
04:14:25,0.0028880008030682802,-71320.0,-0.08623695373535156
04:14:25,0.0028910008259117603,-35363.0,-0.09099388122558594
04:14:25,0.0028940008487552404,-22955.0,-0.09574317932128906
04:14:25,0.002896000922191888,-87338.0,-0.09449291229248047
04:14:25,0.002898000937420875,-239.0,-0.09224605560302734
04:14:25,0.0029000009526498616,-11460.0,-0.09099578857421875
04:14:25,0.0029020010260865092,-43138.0,-0.09274673461914062
04:14:25,0.002904001041315496,-30767.0,-0.09848785400390625
04:14:25,0.0019060010090470314,28615.0,-0.10022544860839844
04:14:25,0.0019080010242760181,29686.0,-0.10196113586425781
04:14:25,0.0019090010318905115,-58244.0,-0.09969806671142578
04:14:25,0.0019090010318905115,-21308.0,-0.09943103790283203
04:14:25,0.0019100010395050049,-16099.0,-0.10416030883789062
04:14:25,0.0019110009889118373,-7806.0,-0.10588455200195312
04:14:25,0.0019120009965263307,-33334.0,-0.10660743713378906
04:14:25,0.001913001004140824,-77237.0,-0.1053323745727539
04:14:25,0.0019150010193698108,-73105.0,-0.10506057739257812
04:14:25,9.19001002330333E-4,-51541.0,-0.10678672790527344
04:14:25,-7.699901470914483E-5,-42311.0,-0.1095132827758789
04:14:25,-7.299904245883226E-5,-29941.0,-0.11223983764648438
04:14:25,-0.0010689987684600055,-44152.0,-0.11096668243408203
04:14:25,-6.699876394122839E-5,62282.0,-0.1076974868774414
04:14:25,9.340013493783772E-4,9035.0,-0.10543155670166016
04:14:25,0.0019340013968758285,-34924.0,-0.10616302490234375
04:14:25,0.0019340013968758285,59228.0,-0.10989189147949219
04:14:25,0.0019330013310536742,-70707.0,-0.11361885070800781
04:14:25,0.0019320013816468418,-19467.0,-0.11434364318847656
04:14:25,0.0019310013740323484,65523.0,-0.11307239532470703
04:14:25,0.0019300013082101941,21449.0,-0.1088113784790039
04:14:25,0.0019300013082101941,-82956.0,-0.1085519790649414
04:14:25,0.0019300013082101941,38920.0,-0.11129379272460938
04:14:25,0.002929001289885491,-3040.0,-0.11104011535644531
04:14:25,-6.899872096255422E-5,-16339.0,-0.11079025268554688
04:14:25,-0.010056998813524842,-31663.0,-0.10854434967041016
04:14:25,-0.02602899936027825,-47011.0,-0.10830116271972656
04:14:25,-0.04098699882160872,-10175.0,-0.10705852508544922
04:14:25,-0.04094499896746129,-36689.0,-0.10781669616699219
04:14:25,-0.016926998738199472,94267.0,-0.11057472229003906
04:14:25,0.009066000930033624,-21433.0,-0.1103372573852539
04:14:25,0.015053000883199275,14454.0,-0.1111001968383789
04:14:25,0.006048000301234424,-22337.0,-0.10787105560302734
04:14:25,5.00003807246685E-5,-26431.0,-0.10764694213867188
04:14:25,-9.469996439293027E-4,53465.0,-0.10842609405517578
04:14:25,-0.0019429995445534587,-7914.0,-0.1072092056274414
04:14:25,-0.0029379994375631213,39226.0,-0.10699844360351562
04:14:25,-0.00193499936722219,-1646.0,-0.10579299926757812
04:14:25,-0.002930999733507633,34238.0,-0.10459041595458984
04:14:25,-0.0029269997030496597,70012.0,-0.1033926010131836
04:14:25,-0.0029229996725916862,2454.0,-0.1011972427368164
04:14:25,-0.002918999525718391,-31238.0,-0.10000419616699219
04:14:25,-0.003913999302312732,-34191.0,-0.09981250762939453
04:14:25,-0.0029099995736032724,-34123.0,-0.0996246337890625
04:14:25,-0.0039049993501976132,-35027.0,-0.09943962097167969
04:14:25,-0.004898999468423426,-80956.0,-0.09725570678710938
04:14:25,-0.004892999539151788,-23536.0,-0.097076416015625
04:14:25,-0.005886999657377601,6178.0,-0.09389972686767578
04:14:25,-0.006879999651573598,-56257.0,-0.09172344207763672
04:14:25,-0.006871999590657651,-77641.0,-0.09254646301269531
04:14:25,-0.007862998871132731,-28428.0,-0.09136962890625
04:14:25,-0.009851998998783529,-12104.0,-0.09119415283203125
04:14:25,-0.009840998565778136,-3946.0,-0.08801937103271484
04:14:25,-0.00982999848201871,37989.0,-0.08584785461425781
04:14:25,-0.010816998314112425,14450.0,-0.08467960357666016
04:14:25,-0.012801998294889927,34908.0,-0.08450794219970703
04:14:25,-0.012786997947841883,-13267.0,-0.0843362808227539
04:14:25,-0.013770997175015509,34816.0,-0.0801687240600586
04:14:25,-0.015752998064272106,8244.0,-0.0760049819946289
04:14:25,-0.01673499622847885,-60314.0,-0.07484054565429688
04:14:25,-0.018714996404014528,-46963.0,-0.0766763687133789
04:14:25,-0.019692996749654412,-70445.0,-0.07851219177246094
04:14:25,-0.01867299631703645,27871.0,-0.0753488540649414
04:14:25,-0.017653996357694268,-37619.0,-0.0721883773803711
04:14:25,-0.01663499663118273,-31421.0,-0.0730276107788086
04:14:25,-0.015617998084053397,-55947.0,-0.07386398315429688
04:14:25,-0.012603997718542814,-11893.0,-0.07469749450683594
04:14:25,-0.009593997150659561,-94653.0,-0.07253170013427734
04:14:25,-0.006586997653357685,-3539.0,-0.07036781311035156
04:14:25,-0.0035829972475767136,29152.0,-0.07120037078857422
04:14:25,-5.809973226860166E-4,33150.0,-0.07303047180175781
04:14:25,0.001419002772308886,-71182.0,-0.07386112213134766
04:14:25,0.0034160028444603086,-45522.0,-0.07268905639648438
04:14:25,0.003414002712816,-7635.0,-0.07152080535888672
04:14:25,0.004411002621054649,44556.0,-0.07035255432128906
04:14:25,0.005406002979725599,19981.0,-0.06918621063232422
04:14:25,0.005402002949267626,-11697.0,-0.07001876831054688
04:14:25,0.005399002926424146,8842.0,-0.07084846496582031
04:14:25,0.005395003012381494,34405.0,-0.07167816162109375
04:14:25,0.005390002625063062,17985.0,-0.06951045989990234
04:14:25,0.004387002787552774,20064.0,-0.06834030151367188
04:14:25,0.0043830027570948005,56957.0,-0.07216453552246094
04:14:25,0.005376002984121442,-30078.0,-0.07398414611816406
04:14:25,0.005368002806790173,-3368.0,-0.07280349731445312
04:14:25,0.004361002938821912,-59597.0,-0.07062625885009766
04:14:25,0.0033560030860826373,-22725.0,-0.07244873046875
04:14:25,0.0033520031720399857,-74749.0,-0.07626914978027344
04:14:25,0.004347003297880292,-65482.0,-0.07608795166015625
04:14:25,0.004343003034591675,15481.0,-0.07291412353515625
04:14:25,0.004340003244578838,-22358.0,-0.07274150848388672
04:14:25,0.004336003330536187,-44870.0,-0.0745697021484375
04:14:25,0.004332003416493535,14479.0,-0.07939624786376953
04:14:25,0.005326003534719348,4341.0,-0.0812225341796875
04:14:25,0.005321003380231559,-41675.0,-0.08005046844482422
04:14:25,0.005315003334544599,-13988.0,-0.08087539672851562
04:14:25,0.005310003412887454,69945.0,-0.0827016830444336
04:14:25,0.005306003266014159,35118.0,-0.08552742004394531
04:14:25,0.0052960035391151905,20788.0,-0.08734989166259766
04:14:25,0.004274003091268241,32055.0,-0.0871744155883789
04:14:25,0.0052330028265714645,10616.0,-0.08700084686279297
04:14:25,0.005182001739740372,58727.0,-0.08782768249511719
04:14:25,0.005141000961884856,-59003.0,-0.0906534194946289
04:14:25,0.005128000979311764,-50686.0,-0.09347820281982422
04:14:25,0.005135000799782574,17938.0,-0.0933074951171875
04:14:25,0.005139000830240548,-39289.0,-0.09414100646972656
04:14:26,0.005134000792168081,-5548.0,-0.09397602081298828
04:14:26,0.0051260009640827775,-25954.0,-0.0978097915649414
04:14:26,0.004119000630453229,76357.0,-0.10164260864257812
04:14:26,0.005109000485390425,10797.0,-0.10347843170166016
04:14:26,0.006098000332713127,20025.0,-0.10431385040283203
04:14:26,0.005089000682346523,63997.0,-0.10315704345703125
04:14:26,0.005078000482171774,-28090.0,-0.10499954223632812
04:14:26,0.0050670006312429905,-10613.0,-0.10784244537353516
04:14:26,0.005056000431068242,46618.0,-0.1086883544921875
04:14:26,0.006045000161975622,-10639.0,-0.11153507232666016
04:14:26,0.005034000612795353,2734.0,-0.11138439178466797
04:14:26,0.005023000645451248,-30965.0,-0.1092376708984375
04:14:26,0.005011000554077327,-18657.0,-0.11008930206298828
04:14:26,0.0040000006556510925,-56430.0,-0.11294078826904297
04:14:26,0.00399000127799809,-2119.0,-0.11579036712646484
04:14:26,0.003979001194238663,42920.0,-0.11364173889160156
04:14:26,0.004966001375578344,-12324.0,-0.11049652099609375
04:14:26,0.003953001170884818,-12286.0,-0.11135196685791016
04:14:26,0.0029400010826066136,-30636.0,-0.11420536041259766
04:14:26,0.003926000848878175,40987.0,-0.1180562973022461
04:14:26,0.003912000800482929,56335.0,-0.11591243743896484
04:14:26,0.0038970005116425455,25584.0,-0.11476993560791016
04:14:26,0.0038810005062259734,-17402.0,-0.11063575744628906
04:14:26,0.003864000318571925,8165.0,-0.10950565338134766
04:14:26,0.003847000014502555,22456.0,-0.1113739013671875
04:14:26,0.00382899958640337,41935.0,-0.11024665832519531
04:14:26,0.0038089993176981807,-83886.0,-0.10912322998046875
04:14:26,0.003786999615840614,40016.0,-0.10500240325927734
04:14:26,0.0027659995830617845,57438.0,-0.10288619995117188
04:14:26,0.0027449995395727456,81992.0,-0.10477161407470703
04:14:26,0.002723999787122011,106507.0,-0.10365772247314453
04:14:26,0.0027039998676627874,-4054.0,-0.10154914855957031
04:14:26,0.002685999672394246,62420.0,-0.09644412994384766
04:14:26,0.0016709998017176986,28663.0,-0.09334278106689453
04:14:26,0.0026579999830573797,22550.0,-0.09324264526367188
04:14:26,0.0026470000157132745,-39835.0,-0.09014225006103516
04:14:26,0.0026389999547973275,40051.0,-0.08804702758789062
04:14:26,0.0026339999167248607,-27437.0,-0.0819549560546875
04:14:26,0.0036299997591413558,26868.0,-0.0778656005859375
04:14:26,0.00362799980212003,28947.0,-0.07577800750732422
04:14:26,0.0026279998710379004,-4761.0,-0.06969451904296875
04:14:26,0.002628999878652394,53654.0,-0.06561279296875
04:14:26,0.0036299997591413558,4464.0,-0.06053638458251953
04:14:26,0.003630999766755849,41321.0,-0.05446338653564453
04:14:26,0.003632999723777175,5479.0,-0.05239295959472656
04:14:26,0.0026359998737461865,-49767.0,-0.04932594299316406
04:14:26,0.002637999947182834,5581.0,-0.04825592041015625
04:14:26,0.00263999990420416,18911.0,-0.04519176483154297
04:14:26,0.003640999842900783,61851.0,-0.039132118225097656
04:14:26,0.0036429997999221087,-21020.0,-0.03407859802246094
04:14:26,0.002644999884068966,41423.0,-0.02603435516357422
04:14:26,0.0026459998916834593,65909.0,-0.023992538452148438
04:14:26,0.0036459998227655888,430.0,-0.02095317840576172
04:14:26,0.0026469999575056136,89425.0,-0.016921043395996094
04:14:26,0.002647999848704785,8525.0,-0.013892173767089844
04:14:26,0.0026489999145269394,33094.0,-0.005873680114746094
04:14:26,0.002649999863933772,10597.0,-8.602142333984375E-4
04:14:26,0.0026509998715482652,61699.0,0.006145477294921875
04:14:26,0.0016539997886866331,26880.0,0.0101470947265625
04:14:26,0.002655999851413071,-15025.0,0.01114654541015625
04:14:26,0.0026569998590275645,24900.0,0.019140243530273438
04:14:26,0.0026589998160488904,23868.0,0.024130821228027344
04:14:26,6.639997009187937E-4,-28354.0,0.03011798858642578
04:14:26,6.689995643682778E-4,-4797.0,0.035101890563964844
04:14:26,0.0016729995841160417,60618.0,0.036087989807128906
04:14:26,6.779995746910572E-4,-17148.0,0.04107189178466797
04:14:26,0.0016809995868243277,226.0,0.045055389404296875
04:14:26,0.003681999514810741,20686.0,0.04903697967529297
04:14:26,0.0036829995806328952,-51857.0,0.05301666259765625
04:14:26,0.00368499947944656,-4753.0,0.052000999450683594
04:14:26,0.0036859994870610535,76067.0,0.054986000061035156
04:14:26,0.00468699965858832,221.0,0.056967735290527344
04:14:26,0.00468699965858832,-80642.0,0.059952735900878906
04:14:26,0.0036879994440823793,1240.0,0.06493473052978516
04:14:26,0.0036909995251335204,-7917.0,0.0659170150756836
04:14:26,0.0036939994897693396,-85649.0,0.06790351867675781
04:14:26,0.0016989994910545647,2388.0,0.06589508056640625
04:14:26,-0.0052900006412528455,-52900.0,0.06389236450195312
04:14:26,-0.019265000300947577,-17074.0,0.06688880920410156
04:14:26,-0.036222001130227,-41599.0,0.06689071655273438
04:14:26,-0.04517100064549595,-32334.0,0.0688924789428711
04:14:26,-0.030135999317280948,-20994.0,0.06689643859863281
04:14:26,-0.0011299997568130493,-51668.0,0.0639047622680664
04:14:26,0.015858999802730978,-48561.0,0.05991554260253906
04:14:26,0.010852999927010387,40499.0,0.055930137634277344
04:14:26,8.560000569559634E-4,-33123.0,0.05594825744628906
04:14:26,-1.3899989426136017E-4,-38146.0,0.05296802520751953
04:14:26,8.660003659315407E-4,-72807.0,0.051993370056152344
04:14:26,-1.2799957767128944E-4,7078.0,0.046024322509765625
04:14:26,-0.0011219996376894414,-22546.0,0.0410614013671875
04:14:26,-0.0021149996900931,-45996.0,0.03610706329345703
04:14:26,-0.0021079996949993074,-58205.0,0.03315544128417969
04:14:26,-0.002100999641697854,-59156.0,0.03020763397216797
04:14:26,-0.0010949995485134423,-6881.0,0.02426910400390625
04:14:26,-0.001088999502826482,13591.0,0.018334388732910156
04:14:26,-0.0020829992718063295,-50824.0,0.014403343200683594
04:14:26,-0.0020769992261193693,-28250.0,0.011473655700683594
04:14:26,-0.003068999096285552,-3660.0,0.008544921875
04:14:26,-0.0030609990935772657,-79396.0,0.00661468505859375
04:14:26,-0.004052998672705144,68013.0,0.0036869049072265625
04:14:26,-0.005043998535256833,-31263.0,0.0017576217651367188
04:14:26,-0.005034998524934053,-15964.0,-0.0011692047119140625
04:14:26,-0.005026998522225767,-20090.0,-0.0010995864868164062
04:14:26,-0.006017998559400439,25917.0,-0.0040302276611328125
04:14:26,-0.007007998879998922,81089.0,-0.007958412170410156
04:14:26,-0.00799799885135144,22594.0,-0.007887840270996094
04:14:26,-0.008986999047920108,-25538.0,-0.007823944091796875
04:14:26,-0.010973999393172562,-42942.0,-0.005761146545410156
04:14:26,-0.011959999799728394,10285.0,-0.005702018737792969
04:14:26,-0.012943999958224595,-91086.0,-0.0066471099853515625
04:14:26,-0.014926000381819904,-20374.0,-0.006591796875
04:14:26,-0.014907000120729208,74.0,-0.0045413970947265625
04:14:26,-0.014889000332914293,-8052.0,-4.9591064453125E-4
04:14:26,-0.01487100007943809,42140.0,5.464553833007812E-4
04:14:26,-0.014852999593131244,-28497.0,0.0025854110717773438
04:14:26,-0.013835998252034187,-34551.0,0.006623268127441406
04:14:26,-0.010821998468600214,-29369.0,0.012654304504394531
04:14:26,-0.007811998017132282,20803.0,0.017675399780273438
04:14:26,-0.004803997813723981,-30344.0,0.021691322326660156
04:14:26,-0.0017989978659898043,14673.0,0.025704383850097656
04:14:26,0.002201002207584679,-40558.0,0.03470611572265625
04:14:26,0.006197001785039902,-74305.0,0.042697906494140625
04:14:26,0.008191001834347844,-37438.0,0.051682472229003906
04:14:26,0.011182001326233149,-18011.0,0.05965614318847656
04:14:26,0.016168001107871532,-85455.0,0.0656280517578125
04:14:27,0.022148000774905086,-62800.0,0.07658767700195312
04:14:27,0.02712400129530579,47714.0,0.08453941345214844
04:14:27,0.0281000011600554,3728.0,0.09348392486572266
04:14:27,0.029074001242406666,-44328.0,0.10142230987548828
04:14:27,0.0310449997195974,-4432.0,0.10935306549072266
04:14:27,0.032014000113122165,-5442.0,0.11827564239501953
04:14:27,0.03498000337276608,45652.0,0.12319374084472656
04:14:27,0.03694399952655658,-42435.0,0.12910938262939453
04:14:27,0.03790700115496293,-5634.0,0.13701915740966797
04:14:27,0.03886999940732494,-73147.0,0.14592266082763672
04:14:27,0.04083099868148565,-27004.0,0.14982223510742188
04:14:27,0.04378900077426806,44664.0,0.15471744537353516
04:14:27,0.045746000949293375,-41283.0,0.16160869598388672
04:14:27,0.050697000173386186,-4484.0,0.16949462890625
04:14:27,0.05764099973021075,-7558.0,0.17537593841552734
04:14:27,0.06357900041621178,-16716.0,0.1802530288696289
04:14:27,0.06651399860857055,31411.0,0.18413257598876953
04:14:27,0.06644899855018593,-71856.0,0.1890096664428711
04:14:27,0.06638499913970008,-14479.0,0.19188690185546875
04:14:27,0.06432100301026367,5031.0,0.19076919555664062
04:14:27,0.06125000098836608,-58356.0,0.19265270233154297
04:14:27,0.05916600005002692,-30634.0,0.1935415267944336
04:14:27,0.05706799963081721,-17289.0,0.19542789459228516
04:14:27,0.05496999940442038,9392.0,0.19331836700439453
04:14:27,0.052895999418979045,43152.0,0.1902141571044922
04:14:27,0.04985300036787521,38014.0,0.1871175765991211
04:14:27,0.047821000538533553,9320.0,0.18502330780029297
04:14:27,0.04378499943413772,67630.0,0.17993545532226562
04:14:27,0.04074600091553293,-4951.0,0.17385196685791016
04:14:27,0.03770899857045151,67668.0,0.16777420043945312
04:14:27,0.03367400146089494,42044.0,0.16370391845703125
04:14:27,0.030640999117167667,31774.0,0.15664005279541016
04:14:27,0.027611000230535865,3160.0,0.14858531951904297
04:14:27,0.026581000129226595,-2969.0,0.14453983306884766
04:14:27,0.024553000141168013,12438.0,0.13650035858154297
04:14:27,0.02252700025564991,-79608.0,0.13246726989746094
04:14:27,0.02150200045434758,11588.0,0.12144756317138672
04:14:27,0.020478000631555915,-27306.0,0.11143779754638672
04:14:27,0.019456000591162592,-50841.0,0.1054372787475586
04:14:27,0.016436002042610198,-20095.0,0.09744548797607422
04:14:27,0.012419001257512718,-95802.0,0.08846092224121094
04:14:27,0.011402000905945897,-38466.0,0.0744924545288086
04:14:27,0.009386000456288457,66957.0,0.06353187561035156
04:14:27,0.006372000963892788,31074.0,0.05457878112792969
04:14:27,0.005360000766813755,-34418.0,0.04563617706298828
04:14:27,0.0033490004134364426,38297.0,0.03670024871826172
04:14:27,0.002338000340387225,-98808.0,0.02377605438232422
04:14:27,0.0013270002091303468,-60890.0,0.011861801147460938
04:14:27,0.0013160001835785806,-19910.0,0.0029516220092773438
04:14:27,0.0013050003326497972,50680.0,-0.004952430725097656
04:14:27,-7.049998384900391E-4,-45559.0,-0.014844894409179688
04:14:27,-7.16000038664788E-4,-38347.0,-0.02573108673095703
04:14:27,-0.0017269999952986836,24104.0,-0.037606239318847656
04:14:27,-0.003737999824807048,-23921.0,-0.04647254943847656
04:14:27,-0.004749000072479248,-59703.0,-0.054335594177246094
04:14:27,-0.006759999610949308,23175.0,-0.06219196319580078
04:14:27,-0.007769999734591693,-41292.0,-0.07004165649414062
04:14:27,-0.007779999345075339,-29921.0,-0.07888126373291016
04:14:27,-0.008788999577518553,33530.0,-0.08870887756347656
04:14:27,-0.009795998688787222,48777.0,-0.09652996063232422
04:14:27,-0.009800998901482671,16009.0,-0.10035037994384766
04:14:27,-0.008803999691735953,-70948.0,-0.10416698455810547
04:14:27,-0.009803998924326152,-2269.0,-0.10697746276855469
04:14:27,-0.009800999134313315,11019.0,-0.1097869873046875
04:14:27,-0.008795999689027667,13028.0,-0.11559104919433594
04:14:27,-0.008788999810349196,-43155.0,-0.11539745330810547
04:14:27,-0.00977799913380295,-68710.0,-0.11520671844482422
04:14:27,-0.00876700010849163,59286.0,-0.11501312255859375
04:14:27,-0.008755000424571335,43918.0,-0.11581707000732422
04:14:27,-0.00874300062423572,-60503.0,-0.11961746215820312
04:14:27,-0.009728999983053654,-58388.0,-0.11741924285888672
04:14:27,-0.009713999985251576,5126.0,-0.11722564697265625
04:14:27,-0.008700000529643148,49156.0,-0.11603164672851562
04:14:27,-0.008687000430654734,45053.0,-0.1168355941772461
04:14:27,-0.008674000157043338,-1962.0,-0.1186370849609375
04:14:27,-0.008661000174470246,56346.0,-0.11743736267089844
04:14:27,-0.008649000083096325,-70563.0,-0.11923599243164062
04:14:27,-0.007637999311555177,14464.0,-0.1170358657836914
04:14:27,-0.007626999286003411,25784.0,-0.1168355941772461
04:14:27,-0.007616999326273799,25804.0,-0.11663341522216797
04:14:27,-0.007606999250128865,-5960.0,-0.11442947387695312
04:14:27,-0.008594999322667718,4315.0,-0.11422443389892578
04:14:27,-0.00858399923890829,12551.0,-0.11202239990234375
04:14:27,-0.008572999096941203,-62141.0,-0.11182212829589844
04:14:27,-0.008561999013181776,66864.0,-0.11061954498291016
04:14:27,-0.00855099898763001,-13010.0,-0.10941410064697266
04:14:27,-0.007540998631156981,-28325.0,-0.11020565032958984
04:14:27,-0.006530998449306935,-15942.0,-0.1099996566772461
04:14:27,-0.006519998540170491,36291.0,-0.1107950210571289
04:14:27,-0.007507998845539987,-28128.0,-0.11058902740478516
04:14:27,-0.008495999383740127,-41418.0,-0.11038017272949219
04:14:27,-0.0074849994271062315,15910.0,-0.1121673583984375
04:14:27,-0.007473999576177448,33277.0,-0.11295509338378906
04:14:27,-0.009459999564569443,-45495.0,-0.11474132537841797
04:14:27,-0.01044499984709546,-57747.0,-0.11652851104736328
04:14:27,-0.01143100022454746,1634.0,-0.11731338500976562
04:14:27,-0.011417000234359875,10879.0,-0.12009620666503906
04:14:27,-0.011403000389691442,-47448.0,-0.12187767028808594
04:14:27,-0.011389000312192366,65098.0,-0.1226654052734375
04:14:27,-0.011373999965144321,57870.0,-0.1264505386352539
04:14:27,-0.010359999898355454,72149.0,-0.12523746490478516
04:14:27,-0.010345999849960208,8686.0,-0.12702655792236328
04:14:27,-0.009333999681985006,-68035.0,-0.12781620025634766
04:14:27,-0.009321999677922577,129473.0,-0.1276111602783203
04:14:27,-0.009308999666245654,87337.0,-0.13040733337402344
04:14:27,-0.01029499975265935,-10910.0,-0.13020610809326172
04:14:27,-0.010280999675160274,-47720.0,-0.13200759887695312
04:14:27,-0.008269000158179551,68954.0,-0.13480663299560547
04:14:27,-0.01025499968091026,47397.0,-0.13560771942138672
04:14:27,-0.02023199935501907,-10990.0,-0.1384124755859375
04:14:27,-0.03719200000341516,5347.0,-0.13822078704833984
04:14:27,-0.0521360011480283,8400.0,-0.14102935791015625
04:14:27,-0.05008200052543543,55479.0,-0.1428365707397461
04:14:27,-0.02605200032121502,-13161.0,-0.14264869689941406
04:14:27,9.520002058707178E-4,-49033.0,-0.1474590301513672
04:14:27,0.00595000026805792,-51045.0,-0.14727401733398438
04:14:27,-0.0020439999607333448,-3976.0,-0.1500873565673828
04:14:27,-0.007033000263618305,20603.0,-0.15089797973632812
04:14:27,-0.00702200014347909,-60231.0,-0.15170860290527344
04:14:27,-0.007011000127931766,-25381.0,-0.15451526641845703
04:14:27,-0.008000000279163942,-41786.0,-0.15332698822021484
04:14:27,-0.007989000281668268,-38676.0,-0.1551361083984375
04:14:27,-0.0079780003252381,5295.0,-0.15494537353515625
04:14:27,-0.00796800041644019,-27465.0,-0.15575313568115234
04:14:27,-0.00695800006724312,-13171.0,-0.15755939483642578
04:14:28,-0.008945999685238348,45086.0,-0.15936660766601562
04:14:28,-0.008933999815781135,8114.0,-0.1601696014404297
04:14:28,-0.007924000412458554,31629.0,-0.16396713256835938
04:14:28,-0.00791400033631362,-32856.0,-0.1647624969482422
04:14:28,-0.008902999412384816,-10342.0,-0.1675567626953125
04:14:28,-0.008891999641491566,11151.0,-0.17134666442871094
04:14:28,-0.007881000616180245,-40008.0,-0.17513275146484375
04:14:28,-0.00886999987415038,12209.0,-0.17991256713867188
04:14:28,-0.008858999761287123,-42019.0,-0.18368148803710938
04:14:28,-0.008847999764839187,-37917.0,-0.18944644927978516
04:14:28,-0.01083499996457249,-74733.0,-0.1952037811279297
04:14:28,-0.011820000101579353,-26518.0,-0.20095348358154297
04:14:28,-0.011804999987361953,5238.0,-0.20569801330566406
04:14:28,-0.012787999992724508,4237.0,-0.2084360122680664
04:14:28,-0.014768999259104021,-4930.0,-0.21216869354248047
04:14:28,-0.01575000028242357,-81611.0,-0.21390056610107422
04:14:28,-0.017728998558595777,8532.0,-0.21762943267822266
04:14:28,-0.01970599897322245,-46771.0,-0.2203502655029297
04:14:28,-0.019681999197928235,-2693.0,-0.22206878662109375
04:14:28,-0.020657999615650624,-23151.0,-0.22478485107421875
04:14:28,-0.021632999822031707,50537.0,-0.22649669647216797
04:14:28,-0.02160800015553832,15779.0,-0.22720718383789062
04:14:28,-0.019585000205552205,-52716.0,-0.22891616821289062
04:14:28,-0.017564999870955944,-52673.0,-0.23162174224853516
04:14:28,-0.015547001676168293,47601.0,-0.2313232421875
04:14:28,-0.013531001488445327,86400.0,-0.23402118682861328
04:14:28,-0.0105170008901041,37230.0,-0.2337198257446289
04:14:28,-0.006508001068141311,44409.0,-0.232421875
04:14:28,-0.00350200105458498,23881.0,-0.2311239242553711
04:14:28,-0.001498000929132104,27958.0,-0.22882652282714844
04:14:28,5.039991228841245E-4,33055.0,-0.2265338897705078
04:14:28,0.0035029990831390023,3328.0,-0.22524070739746094
04:14:28,0.004499999282415956,-37660.0,-0.22194957733154297
04:14:28,0.004496999317780137,10353.0,-0.2186594009399414
04:14:28,0.004493999294936657,43106.0,-0.21637439727783203
04:14:28,0.004490999388508499,35918.0,-0.20910072326660156
04:14:28,0.003487999172648415,-21430.0,-0.20583343505859375
04:14:28,0.003483999113086611,-118561.0,-0.19857311248779297
04:14:28,0.0034789990168064833,-10955.0,-0.19231891632080078
04:14:28,0.002475999091984704,-79502.0,-0.18607139587402344
04:14:28,0.0014749990368727595,80088.0,-0.17583370208740234
04:14:28,0.001473999029258266,30911.0,-0.16660785675048828
04:14:28,0.002471999090630561,33922.0,-0.1573934555053711
04:14:28,0.0024709990539122373,5282.0,-0.14519596099853516
04:14:28,0.0024699990754015744,40049.0,-0.13401317596435547
04:14:28,0.002467999089276418,-44922.0,-0.1218404769897461
04:14:28,0.0014669990341644734,44112.0,-0.10968208312988281
04:14:28,0.0014659990556538105,-37725.0,-0.09753608703613281
04:14:28,0.002463999087922275,7277.0,-0.0844106674194336
04:14:28,0.002462999109411612,-57172.0,-0.07429885864257812
04:14:28,0.002458999108057469,31876.0,-0.062198638916015625
04:14:28,0.0014459992526099086,22578.0,-0.052107810974121094
04:14:28,0.0014169994392432272,-11208.0,-0.039032936096191406
04:14:28,0.00237199998809956,10333.0,-0.02696990966796875
04:14:28,0.0023270001693163067,-10205.0,-0.014921188354492188
04:14:28,0.0013060005148872733,-32715.0,-0.0028867721557617188
04:14:28,0.0013110004074405879,-67493.0,0.009130477905273438
04:14:28,0.0023220002476591617,-32628.0,0.021131515502929688
04:14:28,0.0023250002413988113,-31539.0,0.03211688995361328
04:14:28,0.0023220002476591617,-7977.0,0.04409027099609375
04:14:28,0.002319000312127173,-30464.0,0.053055763244628906
04:14:28,0.002314000332262367,-3880.0,0.06500530242919922
04:14:28,0.0023080004611983895,-876.0,0.0739450454711914
04:14:28,0.0033020004630088806,-72492.0,0.0838766098022461
04:14:28,0.003295000409707427,-49885.0,0.09279537200927734
04:14:28,0.0022880005708429962,-33428.0,0.10270214080810547
04:14:28,0.0022810006339568645,41218.0,0.1105947494506836
04:14:28,0.0022750005882699043,-88747.0,0.11647987365722656
04:14:28,0.001270000502699986,-65134.0,0.12435436248779297
04:14:28,0.0012650004646275192,46445.0,0.12822341918945312
04:14:28,0.00125900047714822,-21106.0,0.13608932495117188
04:14:28,0.0012520003074314445,24946.0,0.1379537582397461
04:14:28,0.0012450002832338214,-70171.0,0.141815185546875
04:14:28,0.0022370002407114953,-25111.0,0.14566898345947266
04:14:28,0.002229000354418531,9713.0,0.14652156829833984
04:14:28,0.0022200002713361755,24021.0,0.14836978912353516
04:14:28,0.0012110001407563686,48544.0,0.1472187042236328
04:14:28,0.0012009999627480283,23904.0,0.14806556701660156
04:14:28,0.002189999955589883,-3748.0,0.14591693878173828
04:14:28,0.0021789998427266255,-61052.0,0.14477157592773438
04:14:28,0.002165999758290127,50474.0,0.14063549041748047
04:14:28,0.00215199968079105,13640.0,0.13650226593017578
04:14:28,0.0021369995665736496,-5800.0,0.13037490844726562
04:14:28,0.0021209995829849504,-1683.0,0.12425518035888672
04:14:28,0.0011049996974179521,-58958.0,0.11914253234863281
04:14:28,0.001086999684048351,29134.0,0.11204051971435547
04:14:28,0.001067999648512341,-8680.0,0.10594749450683594
04:14:28,0.001048999729391653,48558.0,0.0988626480102539
04:14:28,0.0010309997232980095,-66042.0,0.09278583526611328
04:14:28,0.001013999802125909,-10704.0,0.08571815490722656
04:14:28,9.979998669678025E-4,-39376.0,0.0766611099243164
04:14:28,-1.5000137864262797E-5,34292.0,0.06861495971679688
04:14:28,-2.400023913651239E-5,-82369.0,0.0595855712890625
04:14:28,9.689998514659237E-4,-40313.0,0.04956817626953125
04:14:28,9.649998864915688E-4,8832.0,0.04056072235107422
04:14:28,9.629999185563065E-4,27242.0,0.03056621551513672
04:14:28,-3.400020796107128E-5,-29114.0,0.020585060119628906
04:14:28,-2.800019683490973E-5,14931.0,0.009614944458007812
04:14:28,9.789999330678256E-4,54785.0,0.0016565322875976562
04:14:28,9.859999117907137E-4,-50629.0,-0.009288787841796875
04:14:28,-5.0001290219370276E-6,-3482.0,-0.016222000122070312
04:14:28,4.999829343432793E-6,9781.0,-0.027139663696289062
04:14:28,1.4999756785982754E-5,-60776.0,-0.03604698181152344
04:14:28,2.3999671611818485E-5,38527.0,-0.044943809509277344
04:14:28,3.299964009784162E-5,-8556.0,-0.05483055114746094
04:14:28,0.0010409997812530492,-5485.0,-0.061705589294433594
04:14:28,0.0010479997108632233,65166.0,-0.06957149505615234
04:14:28,0.001054999665939249,-45358.0,-0.07542705535888672
04:14:28,6.299959204625338E-5,-26867.0,-0.07927989959716797
04:14:28,0.0010699996128096245,25313.0,-0.08412551879882812
04:14:28,7.699965499341488E-5,16103.0,-0.08497142791748047
04:14:28,8.299965702462941E-5,-53423.0,-0.08681392669677734
04:14:28,8.899966633180156E-5,110231.0,-0.08765316009521484
04:14:28,0.0010949997522402555,-52517.0,-0.08948707580566406
04:14:28,0.001099999739381019,-279.0,-0.09131908416748047
04:14:28,0.0011039996825275011,-28870.0,-0.09015369415283203
04:14:28,0.0011079996329499409,-66623.0,-0.08999252319335938
04:14:28,1.1299948528176174E-4,-3183.0,-0.08983135223388672
04:14:28,1.1799950880231336E-4,7046.0,-0.0886697769165039
04:14:28,0.0011229994124732912,41871.0,-0.08550834655761719
04:14:28,0.0011279994068900123,-22657.0,-0.08334922790527344
04:14:28,1.3499939814209938E-4,17300.0,-0.08119678497314453
04:14:28,-8.570005447836593E-4,39712.0,-0.07805156707763672
04:14:28,1.4899949019309133E-4,37649.0,-0.0759115219116211
04:14:28,1.5599951439071447E-4,-17612.0,-0.07177448272705078
04:14:29,1.61999516421929E-4,45862.0,-0.06963920593261719
04:14:29,0.0011669996747514233,28382.0,-0.06551170349121094
04:14:29,0.001170999661553651,-54481.0,-0.062392234802246094
04:14:29,0.0021749997104052454,49950.0,-0.057282447814941406
04:14:29,0.0021779997332487255,-13523.0,-0.05218219757080078
04:14:29,0.0021809996978845447,-89205.0,-0.046088218688964844
04:14:29,0.0021839997643837705,20320.0,-0.04100513458251953
04:14:29,0.002187999794841744,22371.0,-0.03793144226074219
04:14:29,0.002191999854403548,-57440.0,-0.03186511993408203
04:14:29,0.0021959998121019453,-99300.0,-0.03080463409423828
04:14:29,0.0031989998096833006,-34784.0,-0.025750160217285156
04:14:29,2.0499984384514391E-4,30677.0,-0.02569866180419922
04:14:29,-0.010778999916510656,22461.0,-0.023653030395507812
04:14:29,-0.026747000607429072,-40992.0,-0.021610260009765625
04:14:29,-0.04169899920816533,-21518.0,-0.02057361602783203
04:14:29,-0.040653001342434436,-39921.0,-0.018541336059570312
04:14:29,-0.01663100117002614,-102237.0,-0.018509864807128906
04:14:29,0.011361999728251249,-41799.0,-0.01648235321044922
04:14:29,0.01635100055136718,22681.0,-0.015456199645996094
04:14:29,0.007349000050453469,-23446.0,-0.015435218811035156
04:14:29,0.0023519998940173537,-8102.0,-0.015417098999023438
04:14:29,0.003352999803610146,-52129.0,-0.0153961181640625
04:14:29,0.0013559997896663845,-37728.0,-0.014377593994140625
04:14:29,3.599997435230762E-4,-15185.0,-0.01535797119140625
04:14:29,3.639997448772192E-4,33931.0,-0.0163421630859375
04:14:29,-6.310002936515957E-4,37977.0,-0.01632404327392578
04:14:29,-0.0016250004118774086,-11171.0,-0.017301559448242188
04:14:29,3.7799967685714364E-4,64570.0,-0.017276763916015625
04:14:29,3.8099964149296284E-4,-42899.0,-0.01625537872314453
04:14:29,-6.14000455243513E-4,-8076.0,-0.018230438232421875
04:14:29,-6.1000045388937E-4,76746.0,-0.015207290649414062
04:14:29,-6.070004601497203E-4,40771.0,-0.01617717742919922
04:14:29,-0.0016020004986785352,-3336.0,-0.01714324951171875
04:14:29,-0.0015970006061252207,-15708.0,-0.016111373901367188
04:14:29,-0.0025920007028616965,15975.0,-0.018075942993164062
04:14:29,-0.0035860009375028312,4617.0,-0.015034675598144531
04:14:29,-0.004579000640660524,19875.0,-0.01598834991455078
04:14:29,-0.004573000769596547,22957.0,-0.01594066619873047
04:14:29,-0.005566000880207866,30072.0,-0.013895034790039062
04:14:29,-0.005557001015404239,44344.0,-0.014843940734863281
04:14:29,-0.006548001314513385,23864.0,-0.013785362243652344
04:14:29,-0.007539001584518701,34074.0,-0.013722419738769531
04:14:29,-0.009529001050395891,-36469.0,-0.013653755187988281
04:14:29,-0.009518000995740294,-20061.0,-0.012584686279296875
04:14:29,-0.010506001126486808,54632.0,-0.011510848999023438
04:14:29,-0.012493001471739262,55575.0,-0.0114288330078125
04:14:29,-0.013479001412633806,36035.0,-0.009344100952148438
04:14:29,-0.015463001851458102,56487.0,-0.010250091552734375
04:14:29,-0.015446001605596393,-47928.0,-0.010152816772460938
04:14:29,-0.015429001359734684,7349.0,-0.010051727294921875
04:14:29,-0.015413001412525773,19685.0,-0.008945465087890625
04:14:29,-0.014398000319488347,-9982.0,-0.0088348388671875
04:14:29,-0.01138600060949102,14636.0,-0.008715629577636719
04:14:29,-0.009377000271342695,-63131.0,-0.005596160888671875
04:14:29,-0.00537200050894171,-29267.0,-0.005474090576171875
04:14:29,-0.0023710004752501845,-9799.0,-0.0023517608642578125
04:14:29,6.279995432123542E-4,29144.0,-0.0022230148315429688
04:14:29,0.0026249995571561158,-76244.0,-0.0020904541015625
04:14:29,0.0046199996722862124,-64851.0,4.38690185546875E-5
04:14:29,0.006610999524127692,-80136.0,0.0011777877807617188
04:14:29,0.007601999561302364,-36078.0,0.001316070556640625
04:14:29,0.008592999714892358,-106621.0,0.0034532546997070312
04:14:29,0.008582999755162746,-93167.0,0.004590034484863281
04:14:29,0.00857199972961098,-21433.0,0.0037279129028320312
04:14:29,0.008560999587643892,-42903.0,0.004871368408203125
04:14:29,0.00854899937985465,12399.0,0.006012916564941406
04:14:29,0.008536999288480729,6262.0,0.0071544647216796875
04:14:29,0.00952499860431999,-1936.0,0.008292198181152344
04:14:29,0.008514999353792518,-72511.0,0.010428428649902344
04:14:29,0.0075069990125484765,72800.0,0.010560035705566406
04:14:29,0.00749899900984019,29792.0,0.012690544128417969
04:14:29,0.007490999065339565,46156.0,0.012819290161132812
04:14:29,0.007481998996809125,-5012.0,0.013946533203125
04:14:29,0.006473998801084235,-17293.0,0.015072822570800781
04:14:29,0.006466998805990443,-43901.0,0.015193939208984375
04:14:29,0.006459998869104311,11372.0,0.01630878448486328
04:14:29,0.0064539989398326725,-10092.0,0.014420509338378906
04:14:29,0.006446999032050371,84045.0,0.0135345458984375
04:14:29,0.006432999187381938,16444.0,0.01165008544921875
04:14:29,0.006405999418348074,-13164.0,0.009763717651367188
04:14:29,0.006361999781802297,68692.0,0.007874488830566406
04:14:29,0.007307000370929018,7244.0,0.00498199462890625
04:14:29,0.007265000545885414,-41870.0,0.0030879974365234375
04:14:29,0.008252000581705943,-20359.0,0.0011949539184570312
04:14:29,0.008258000685600564,-29472.0,-0.0016965866088867188
04:14:29,0.007260000566020608,-35566.0,-0.002593994140625
04:14:29,0.007253000483615324,-1721.0,-0.0044918060302734375
04:14:29,0.007244000327773392,-40564.0,-0.006390571594238281
04:14:29,0.006235000138985924,-14978.0,-0.007292747497558594
04:14:29,0.006224000186193734,13643.0,-0.008199691772460938
04:14:29,0.006213000087882392,23830.0,-0.009110450744628906
04:14:29,0.0062020000332267955,2308.0,-0.010024070739746094
04:14:29,0.006189999941852875,43287.0,-0.01293182373046875
04:14:29,0.005179999687243253,-65163.0,-0.015837669372558594
04:14:29,0.005170999676920474,34198.0,-0.017744064331054688
04:14:29,0.0051619996229419485,-24117.0,-0.021650314331054688
04:14:29,0.005152999568963423,86462.0,-0.0235595703125
04:14:29,0.005142999652889557,-11832.0,-0.026467323303222656
04:14:29,0.005132999562192708,58789.0,-0.027376174926757812
04:14:29,0.005122999558807351,16805.0,-0.02928447723388672
04:14:29,0.0051119997224304825,-61916.0,-0.03119182586669922
04:14:29,0.0050989997980650514,-39286.0,-0.03509712219238281
04:14:29,0.005085999779112171,-3438.0,-0.0399932861328125
04:14:29,0.004073000025528017,-47402.0,-0.044882774353027344
04:14:29,0.005058999748143833,25256.0,-0.049767494201660156
04:14:29,0.005043999837653246,-51462.0,-0.05165290832519531
04:14:29,0.005028999848946114,25306.0,-0.055538177490234375
04:14:29,0.005012999953578401,83609.0,-0.058419227600097656
04:14:29,0.0039980003148230026,7863.0,-0.060296058654785156
04:14:29,0.003983000315201934,-29962.0,-0.06417083740234375
04:14:29,0.003966000214859378,29362.0,-0.06704044342041016
04:14:29,0.00394800040521659,-2369.0,-0.06990337371826172
04:14:29,0.003929000406060368,32403.0,-0.07275962829589844
04:14:29,0.0029100003084749915,-28024.0,-0.07460975646972656
04:14:29,0.0028900001707370393,14989.0,-0.0764617919921875
04:14:29,0.0018700000800890848,11841.0,-0.07631397247314453
04:14:29,0.0018510000954847783,11815.0,-0.07616806030273438
04:14:29,0.001832000387366861,62991.0,-0.07801532745361328
04:14:29,0.0018140004685847089,-62939.0,-0.07785987854003906
04:14:29,0.0027970002265647054,-7622.0,-0.07770252227783203
04:14:29,0.0017840000800788403,-4593.0,-0.0795440673828125
04:14:29,0.001774000222212635,-26105.0,-0.08138179779052734
04:14:29,0.0017680002929409966,-124350.0,-0.08121776580810547
04:14:29,7.660002156626433E-4,25119.0,-0.08105182647705078
04:14:29,7.660002156626433E-4,-60879.0,-0.08388328552246094
04:14:30,7.680002454435453E-4,76221.0,-0.08271312713623047
04:14:30,7.720002031419426E-4,3514.0,-0.08353900909423828
04:14:30,7.760001462884247E-4,34203.0,-0.0843648910522461
04:14:30,0.0017790002166293561,-80397.0,-0.08319473266601562
04:14:30,0.001782000093953684,-73128.0,-0.08402538299560547
04:14:30,0.0017840000800788403,-8567.0,-0.08385372161865234
04:14:30,0.0017870001756818965,38498.0,-0.08267974853515625
04:14:30,0.0017900001257658005,-48427.0,-0.08450603485107422
04:14:30,0.001793000235920772,34446.0,-0.08533191680908203
04:14:30,0.0017960002296604216,7783.0,-0.0871572494506836
04:14:30,7.990002777660266E-4,29247.0,-0.0859842300415039
04:14:30,-1.969997101696208E-4,7776.0,-0.08681106567382812
04:14:30,8.060004183789715E-4,-336.0,-0.08764076232910156
04:14:30,8.100004633888602E-4,32373.0,-0.08747196197509766
04:14:30,8.140004792949185E-4,-66872.0,-0.08730316162109375
04:14:30,8.170005021383986E-4,-14735.0,-0.08713626861572266
04:14:30,8.200005977414548E-4,-10651.0,-0.08597373962402344
04:14:30,8.230005478253588E-4,32385.0,-0.0858154296875
04:14:30,0.0018250005814479664,3730.0,-0.08565902709960938
04:14:30,0.0018270005530212075,-44339.0,-0.0865030288696289
04:14:30,8.30000513815321E-4,-21886.0,-0.08734607696533203
04:14:30,8.340004860656336E-4,15956.0,-0.09018802642822266
04:14:30,8.380004292121157E-4,26175.0,-0.09103775024414062
04:14:30,8.420002995990217E-4,14866.0,-0.09089088439941406
04:14:30,8.460002718493342E-4,28137.0,-0.09274673461914062
04:14:30,8.500002004439011E-4,-23004.0,-0.09260177612304688
04:14:30,8.540002017980441E-4,26146.0,-0.09445571899414062
04:14:30,-1.4199990255292505E-4,45616.0,-0.09531211853027344
04:14:30,-0.001136999882874079,47655.0,-0.09417343139648438
04:14:30,-0.0011319998593535274,-13809.0,-0.0940399169921875
04:14:30,-0.0011279998871032149,-42455.0,-0.0929098129272461
04:14:30,-0.0011239998857490718,9741.0,-0.0937814712524414
04:14:30,-1.1999982234556228E-4,-40360.0,-0.0936574935913086
04:14:30,8.830002625472844E-4,13907.0,-0.09553337097167969
04:14:30,0.001885000296169892,4633.0,-0.09441089630126953
04:14:30,0.0018860002819565125,17926.0,-0.09628772735595703
04:14:30,8.890002645784989E-4,5629.0,-0.09617042541503906
04:14:30,0.0018910003709606826,6579.0,-0.09705352783203125
04:14:30,0.002892000258725602,3513.0,-0.0969381332397461
04:14:30,0.00189400037197629,-20021.0,-0.09882164001464844
04:14:30,8.960003542597406E-4,5562.0,-0.09870624542236328
04:14:30,0.002897000376833603,2518.0,-0.10059070587158203
04:14:30,9.000004210975021E-4,109949.0,-0.10247516632080078
04:14:30,-0.008087999980489258,25947.0,-0.1043558120727539
04:14:30,-0.023060999759763945,-39575.0,-0.10723686218261719
04:14:30,-0.03702100032387534,60655.0,-0.10612010955810547
04:14:30,-0.03698100043584418,28852.0,-0.10800457000732422
04:14:30,-0.013964000434498303,37970.0,-0.10689163208007812
04:14:30,0.016023000831410172,84008.0,-0.10478019714355469
04:14:30,0.026999000812338636,-10222.0,-0.10467243194580078
04:14:30,0.020979999797418714,75682.0,-0.10356521606445312
04:14:30,0.016965000973868882,66428.0,-0.10345745086669922
04:14:30,0.018947999662486836,15251.0,-0.10435009002685547
04:14:30,0.018930999700387474,14178.0,-0.10624122619628906
04:14:30,0.019912999894586392,51078.0,-0.10513877868652344
04:14:30,0.022892000342835672,46903.0,-0.1060323715209961
04:14:30,0.02287200026330538,-15466.0,-0.10592460632324219
04:14:30,0.022852000227430835,-64538.0,-0.10581779479980469
04:14:30,0.02383100074075628,23481.0,-0.10471343994140625
04:14:30,0.023810000813682564,43999.0,-0.10460948944091797
04:14:30,0.023789000610122457,30696.0,-0.10350322723388672
04:14:30,0.0227690004685428,74700.0,-0.1033945083618164
04:14:30,0.021750000334577635,8076.0,-0.10528755187988281
04:14:30,0.019733000255655497,-18571.0,-0.10618019104003906
04:14:30,0.018717000144533813,-35898.0,-0.10707283020019531
04:14:30,0.016702001565136015,10187.0,-0.10895919799804688
04:14:30,0.014689000352518633,56277.0,-0.11184501647949219
04:14:30,0.013677001115866005,-15407.0,-0.11372852325439453
04:14:30,0.011668000719510019,-60381.0,-0.11361122131347656
04:14:30,0.00966100036748685,-19369.0,-0.11648750305175781
04:14:30,0.006656000798102468,13425.0,-0.11436653137207031
04:14:30,0.004653000476537272,-41856.0,-0.11624622344970703
04:14:30,0.0026520005776546896,30861.0,-0.11612796783447266
04:14:30,-3.459994914010167E-4,-21322.0,-0.1150064468383789
04:14:30,-0.0013429996324703097,17671.0,-0.11588382720947266
04:14:30,-0.004336999758379534,45280.0,-0.1147623062133789
04:14:30,-0.006328999646939337,20686.0,-0.11464500427246094
04:14:30,-0.008319999935338274,17648.0,-0.1155242919921875
04:14:30,-0.010307999385986477,21689.0,-0.11639881134033203
04:14:30,-0.01129499965463765,45189.0,-0.11627483367919922
04:14:30,-0.012280999770155177,39012.0,-0.11615371704101562
04:14:30,-0.012266999779967591,77810.0,-0.11703205108642578
04:14:30,-0.010254999622702599,26556.0,-0.11690711975097656
04:14:30,-0.008245000266470015,24539.0,-0.11478614807128906
04:14:30,-0.0072360000922344625,-5156.0,-0.11466503143310547
04:14:30,-0.005228999900282361,-19476.0,-0.11454296112060547
04:14:30,-0.002226000156952068,40891.0,-0.11541461944580078
04:14:30,7.739999855402857E-4,34700.0,-0.11728668212890625
04:14:30,0.0027729999274015427,-12377.0,-0.11916160583496094
04:14:30,0.004768999831867404,38807.0,-0.12203216552734375
04:14:30,0.005763000051956624,-35.0,-0.12289905548095703
04:14:30,0.005758000057539903,-7230.0,-0.12576007843017578
04:14:30,0.0057530000631231815,11201.0,-0.1256237030029297
04:14:30,0.006746000231942162,-66500.0,-0.12348556518554688
04:14:30,0.006738000316545367,28676.0,-0.12434864044189453
04:14:30,0.005731000273954123,-48109.0,-0.12420940399169922
04:14:30,0.005724000307964161,-19414.0,-0.12407302856445312
04:14:30,0.005717000341974199,-14354.0,-0.12493419647216797
04:14:30,0.004712000169092789,-34897.0,-0.12578868865966797
04:14:30,0.004708000167738646,-37949.0,-0.12564373016357422
04:14:30,0.003706000337842852,30597.0,-0.12450122833251953
04:14:30,0.0037030003441032022,29491.0,-0.12535667419433594
04:14:30,0.0036990003136452287,6939.0,-0.12520980834960938
04:14:30,0.003696000319905579,25299.0,-0.12406349182128906
04:14:30,0.0026940001116599888,42652.0,-0.1259174346923828
04:14:30,0.0026910000888165087,38488.0,-0.12476730346679688
04:14:30,0.0026880001823883504,29264.0,-0.12761306762695312
04:14:30,0.0016870002436917275,-92522.0,-0.12845516204833984
04:14:30,0.0016800002485979348,44696.0,-0.13030052185058594
04:14:30,0.002660000027390197,-60749.0,-0.13114356994628906
04:14:30,0.002624000102514401,-48420.0,-0.12998676300048828
04:14:30,0.0015770001919008791,44676.0,-0.12982559204101562
04:14:30,0.0015380005934275687,73318.0,-0.12766742706298828
04:14:30,0.0015270007424987853,-28950.0,-0.12551307678222656
04:14:30,0.0015380006516352296,6946.0,-0.12436199188232422
04:14:30,5.480005929712206E-4,-17493.0,-0.12420463562011719
04:14:30,0.001548000640468672,-32844.0,-0.1230478286743164
04:14:30,5.460006359498948E-4,-34806.0,-0.12388992309570312
04:14:30,5.440007080323994E-4,25657.0,-0.12173652648925781
04:14:30,5.400006775744259E-4,-11195.0,-0.12158489227294922
04:14:30,0.001534000737592578,-26506.0,-0.12043476104736328
04:14:30,0.001527000858914107,45125.0,-0.11928462982177734
04:14:30,0.001520000834716484,-36771.0,-0.1201333999633789
04:14:30,0.0015140008181333542,10367.0,-0.11898231506347656
04:14:30,0.0015080008306540549,19571.0,-0.12183284759521484
04:14:31,5.010008462704718E-4,13443.0,-0.12168312072753906
04:14:31,0.001493001007474959,-4962.0,-0.12453460693359375
04:14:31,0.0014850010629743338,8378.0,-0.1253805160522461
04:14:31,0.001476001227274537,-25380.0,-0.12622833251953125
04:14:31,0.0014670012169517577,-74433.0,-0.12508010864257812
04:14:31,0.0014570012572221458,-36493.0,-0.12493324279785156
04:14:31,0.002445001038722694,39220.0,-0.12378787994384766
04:14:31,0.001433001016266644,7389.0,-0.12464141845703125
04:14:31,0.0014210010995157063,52308.0,-0.12349605560302734
04:14:31,0.002408000931609422,-21403.0,-0.1253528594970703
04:14:31,0.002394000766798854,56396.0,-0.12420940399169922
04:14:31,0.0023800007184036076,-19304.0,-0.1240701675415039
04:14:31,0.0013660007971338928,2201.0,-0.123931884765625
04:14:31,0.001351000857539475,-17148.0,-0.12180042266845703
04:14:31,0.0013350008521229029,-31414.0,-0.12067222595214844
04:14:31,0.0013180007226765156,-7827.0,-0.12054252624511719
04:14:31,0.001300000585615635,23857.0,-0.12141036987304688
04:14:31,0.0012810005573555827,-5845.0,-0.12128162384033203
04:14:31,0.0012600005138665438,-69214.0,-0.12315654754638672
04:14:31,0.0012380005209706724,7558.0,-0.12303447723388672
04:14:31,2.1600042236968875E-4,-27190.0,-0.12390899658203125
04:14:31,0.0011940003605559468,7628.0,-0.12278270721435547
04:14:31,0.0011730007245205343,49641.0,-0.12265968322753906
04:14:31,0.0021520009031519294,32164.0,-0.12054443359375
04:14:31,0.002133001107722521,-11918.0,-0.12043094635009766
04:14:31,0.0011180011206306517,38187.0,-0.11732006072998047
04:14:31,0.0011070012114942074,11566.0,-0.11820316314697266
04:14:31,1.0100111830979586E-4,85194.0,-0.11808967590332031
04:14:31,9.70012042671442E-5,14590.0,-0.11698055267333984
04:14:31,9.500107262283564E-5,-2846.0,-0.11487674713134766
04:14:31,-9.039990254677832E-4,-58107.0,-0.11476898193359375
04:14:31,-9.019989520311356E-4,-27320.0,-0.11466026306152344
04:14:31,-8.97998979780823E-4,-27310.0,-0.1135549545288086
04:14:31,1.0600127279758453E-4,-18129.0,-0.11245346069335938
04:14:31,1.1000118684023619E-4,58595.0,-0.11235523223876953
04:14:31,1.1400115909054875E-4,-8957.0,-0.10925674438476562
04:14:31,1.1800130596384406E-4,-43695.0,-0.10715675354003906
04:14:31,1.2200127821415663E-4,27981.0,-0.1060628890991211
04:14:31,-8.729989058338106E-4,-29321.0,-0.10397148132324219
04:14:31,-8.679988095536828E-4,42334.0,-0.10287857055664062
04:14:31,-8.629989461041987E-4,47369.0,-0.09878826141357422
04:14:31,-8.579989662393928E-4,-3832.0,-0.09570026397705078
04:14:31,-0.0018519990844652057,-42660.0,-0.09361839294433594
04:14:31,-0.0018469992210157216,6543.0,-0.09053897857666016
04:14:31,-0.0018419992411509156,-105958.0,-0.0874624252319336
04:14:31,-0.0018359993118792772,10737.0,-0.08538627624511719
04:14:31,-0.0018299994408152997,-56747.0,-0.08431339263916016
04:14:31,-0.0018249994609504938,51714.0,-0.08124160766601562
04:14:31,-0.001819999422878027,-20968.0,-0.07816886901855469
04:14:31,-0.001814999501220882,62937.0,-0.07410049438476562
04:14:31,-0.001809999521356076,27049.0,-0.0720357894897461
04:14:31,-0.0018039998249150813,-22021.0,-0.07097053527832031
04:14:31,-0.001797999779228121,-56724.0,-0.06790828704833984
04:14:31,-0.0017919997335411608,91691.0,-0.06384658813476562
04:14:31,-0.0017859996878542006,15958.0,-0.06178760528564453
04:14:31,-0.0017799997003749013,-5567.0,-0.05873298645019531
04:14:31,-0.001773999712895602,-21965.0,-0.05568504333496094
04:14:31,-0.0027669997652992606,5675.0,-0.05363655090332031
04:14:31,-0.0027589998207986355,46716.0,-0.05458354949951172
04:14:31,-0.0027509998180903494,3743.0,-0.052532196044921875
04:14:31,-0.0027439999394118786,-36120.0,-0.04848670959472656
04:14:31,-0.0047339999582618475,65178.0,-0.045447349548339844
04:14:31,-0.004724999889731407,12991.0,-0.043412208557128906
04:14:31,-0.004715999937616289,-21770.0,-0.04037761688232422
04:14:31,-0.004706999810878187,-59581.0,-0.04034137725830078
04:14:31,-0.003697999636642635,30550.0,-0.040305137634277344
04:14:31,-0.002690999652259052,864.0,-0.041271209716796875
04:14:31,-0.00268399971537292,-36920.0,-0.040238380432128906
04:14:31,-0.0016769995563663542,-35865.0,-0.037207603454589844
04:14:31,-0.0016699995030649006,-7161.0,-0.03517627716064453
04:14:31,-0.0026629995554685593,-29623.0,-0.03214836120605469
04:14:31,-0.0016559994546696544,-1977.0,-0.030121803283691406
04:14:31,-6.509994273073971E-4,-68476.0,-0.030096054077148438
04:14:31,-0.0016449994873255491,-20251.0,-0.029074668884277344
04:14:31,-6.399994599632919E-4,11492.0,-0.030050277709960938
04:14:31,-6.359994295053184E-4,45209.0,-0.03002452850341797
04:14:31,-0.005625999358016998,20590.0,-0.03099536895751953
04:14:31,-0.017604000284336507,30830.0,-0.030965805053710938
04:14:31,-0.03556299925548956,71658.0,-0.028942108154296875
04:14:31,-0.04750999761745334,-6170.0,-0.02891826629638672
04:14:31,-0.037467999645741656,23439.0,-0.02789020538330078
04:14:31,-0.00945299884187989,-25732.0,-0.027860641479492188
04:14:31,0.012539001094410196,-34912.0,-0.028830528259277344
04:14:31,0.01153200087719597,43906.0,-0.031798362731933594
04:14:31,0.0025330008065793663,-24655.0,-0.03376483917236328
04:14:31,-0.0014619993162341416,-89082.0,-0.03372669219970703
04:14:31,-0.0014559993287548423,-49178.0,-0.035683631896972656
04:14:31,-0.002449999446980655,23575.0,-0.03663921356201172
04:14:31,-0.0024439996341243386,-27575.0,-0.03559684753417969
04:14:31,-0.0034369995119050145,135.0,-0.035553932189941406
04:14:31,-0.0044289997313171625,10290.0,-0.0355072021484375
04:14:31,-0.004419999779202044,51146.0,-0.03745746612548828
04:14:31,-0.003412999620195478,-62415.0,-0.03940296173095703
04:14:31,-0.003405999595997855,-33761.0,-0.04134368896484375
04:14:31,-0.004398999706609175,-26584.0,-0.044280052185058594
04:14:31,-0.0053909993439447135,21547.0,-0.04321765899658203
04:14:31,-0.006380999489920214,-28592.0,-0.04515266418457031
04:14:31,-0.006371999537805095,-12167.0,-0.04508399963378906
04:14:31,-0.007361999654676765,-45836.0,-0.04501056671142578
04:14:31,-0.009350999054731801,-39741.0,-0.04593467712402344
04:14:31,-0.010338999301893637,31945.0,-0.046858787536621094
04:14:31,-0.011324999504722655,-55077.0,-0.046782493591308594
04:14:31,-0.011311999522149563,52399.0,-0.047698974609375
04:14:31,-0.012297999754082412,-1900.0,-0.048610687255859375
04:14:31,-0.013282999861985445,7385.0,-0.049518585205078125
04:14:31,-0.0142680000863038,-53969.0,-0.04842853546142578
04:14:31,-0.015250999509589747,-21103.0,-0.050334930419921875
04:14:31,-0.01723300077719614,-11857.0,-0.052234649658203125
04:14:31,-0.01821399907930754,-33291.0,-0.052127838134765625
04:14:31,-0.01919399917824194,23004.0,-0.05401802062988281
04:14:31,-0.020171999232843518,-42518.0,-0.053908348083496094
04:14:31,-0.021148999367142096,1525.0,-0.054795265197753906
04:14:31,-0.02212699943629559,-5636.0,-0.05467700958251953
04:14:31,-0.022104999407019932,28134.0,-0.05555438995361328
04:14:31,-0.021083999279653654,-27121.0,-0.05443382263183594
04:14:31,-0.021061999395897146,13830.0,-0.053310394287109375
04:14:31,-0.020041999152454082,-15834.0,-0.05218696594238281
04:14:31,-0.017025000553985592,-42464.0,-0.051062583923339844
04:14:31,-0.014012999975420826,29178.0,-0.048938751220703125
04:14:31,-0.01000399932217988,-44476.0,-0.05080890655517578
04:14:31,-0.007996999951046746,-15817.0,-0.04668140411376953
04:14:31,-0.005990999651658058,-81225.0,-0.04755210876464844
04:14:31,-0.0029899996088715852,-9527.0,-0.04642772674560547
04:14:31,-9.909996470014448E-4,6859.0,-0.043304443359375
04:14:31,7.000388450251194E-6,-59681.0,-0.04217815399169922
04:14:32,4.000408353022067E-6,18086.0,-0.04105186462402344
04:14:32,2.000410177060985E-6,18122.0,-0.040925025939941406
04:14:32,0.0010000004761386572,-33052.0,-0.03979778289794922
04:14:32,9.980004704175371E-4,-43257.0,-0.04067039489746094
04:14:32,9.970004459773918E-4,18162.0,-0.04154205322265625
04:14:32,-2.999601520059514E-6,24298.0,-0.041411399841308594
04:14:32,-2.999601520059514E-6,-53421.0,-0.041278839111328125
04:14:32,9.960004717868287E-4,51996.0,-0.041146278381347656
04:14:32,9.94000468381273E-4,15196.0,-0.03901863098144531
04:14:32,9.92000472251675E-4,6016.0,-0.036895751953125
04:14:32,9.910004509947612E-4,32607.0,-0.03577232360839844
04:14:32,-8.99959650269011E-6,-73791.0,-0.03464698791503906
04:14:32,9.840004313446116E-4,31667.0,-0.03452014923095703
04:14:32,9.640004063840024E-4,-34835.0,-0.03239631652832031
04:14:32,9.260004808311351E-4,-46021.0,-0.033270835876464844
04:14:32,8.770005224505439E-4,30755.0,-0.030150413513183594
04:14:32,-1.589995954418555E-4,-35755.0,-0.03003215789794922
04:14:32,-1.6499959747307003E-4,22609.0,-0.02991485595703125
04:14:32,-1.5199957124423236E-4,-12215.0,-0.02979278564453125
04:14:32,8.580004796385765E-4,2196.0,-0.02967071533203125
04:14:32,8.590004727011546E-4,-55086.0,-0.02954864501953125
04:14:32,8.570004720240831E-4,-5940.0,-0.031426429748535156
04:14:32,0.0018530005181673914,1177.0,-0.033301353454589844
04:14:32,0.0018480004800949246,26789.0,-0.036171913146972656
04:14:32,0.0018430004711262882,-27432.0,-0.038041114807128906
04:14:32,0.0018380004476057366,-17153.0,-0.039910316467285156
04:14:32,0.0018320004601264372,-23358.0,-0.04078102111816406
04:14:32,8.280003821710125E-4,-21352.0,-0.04164695739746094
04:14:32,8.240003808168694E-4,35937.0,-0.040513038635253906
04:14:32,8.20000350358896E-4,15400.0,-0.042377471923828125
04:14:32,8.150003268383443E-4,-5073.0,-0.043239593505859375
04:14:32,0.001809000372304581,-4986.0,-0.046100616455078125
04:14:32,0.0018020003626588732,-64306.0,-0.04895496368408203
04:14:32,0.0017940003308467567,43199.0,-0.05180549621582031
04:14:32,0.0017860003281384706,-34571.0,-0.05365753173828125
04:14:32,0.001777000303263776,43219.0,-0.0565032958984375
04:14:32,7.680002454435453E-4,25858.0,-0.05934715270996094
04:14:32,7.580002275062725E-4,290.0,-0.06218528747558594
04:14:32,0.0017460003145970404,30981.0,-0.06302165985107422
04:14:32,0.0017340004269499332,31029.0,-0.0638589859008789
04:14:32,7.230003830045462E-4,-29343.0,-0.06569099426269531
04:14:32,0.0017100004479289055,45417.0,-0.06652259826660156
04:14:32,0.0016960004577413201,61715.0,-0.06934928894042969
04:14:32,0.0016810005472507328,59635.0,-0.07017707824707031
04:14:32,0.0016650005418341607,53431.0,-0.07599735260009766
04:14:32,0.0016470005793962628,49246.0,-0.07781696319580078
04:14:32,6.290005403570831E-4,96244.0,-0.0826272964477539
04:14:32,0.0016090005810838193,48067.0,-0.08643436431884766
04:14:32,0.0015880005084909499,27583.0,-0.09123516082763672
04:14:32,0.0015670006105210632,-46071.0,-0.09502792358398438
04:14:32,0.001546000683447346,34798.0,-0.09682178497314453
04:14:32,0.0015260007348842919,-9162.0,-0.10061359405517578
04:14:32,5.090006743557751E-4,-28510.0,-0.10340309143066406
04:14:32,4.940006183460355E-4,-70444.0,-0.10418987274169922
04:14:32,0.0014800008502788842,15639.0,-0.10596847534179688
04:14:32,4.700009012594819E-4,30013.0,-0.10774517059326172
04:14:32,4.640008555725217E-4,12624.0,-0.10852336883544922
04:14:32,4.610008909367025E-4,-38599.0,-0.11030197143554688
04:14:32,4.6000094152987003E-4,58656.0,-0.11107921600341797
04:14:32,-5.379991489462554E-4,30956.0,-0.11584949493408203
04:14:32,-5.349991261027753E-4,50410.0,-0.1176156997680664
04:14:32,4.670009366236627E-4,43226.0,-0.12237930297851562
04:14:32,-5.289990804158151E-4,-1854.0,-0.1241445541381836
04:14:32,-5.249991663731635E-4,1232.0,-0.12790679931640625
04:14:32,4.7800090396776795E-4,68727.0,-0.12866497039794922
04:14:32,-5.179991712793708E-4,111639.0,-0.13241863250732422
04:14:32,-5.139991990290582E-4,-35829.0,-0.13517093658447266
04:14:32,-5.089993355795741E-4,53229.0,-0.1359272003173828
04:14:32,-5.049993633292615E-4,32702.0,-0.13868141174316406
04:14:32,-5.009993328712881E-4,24484.0,-0.14043045043945312
04:14:32,-4.97999310027808E-4,50043.0,-0.14217662811279297
04:14:32,-4.939992795698345E-4,36663.0,-0.14492416381835938
04:14:32,-4.899993073195219E-4,16191.0,-0.14667320251464844
04:14:32,-4.8699931357987225E-4,17217.0,-0.1484222412109375
04:14:32,-4.839993198402226E-4,-41206.0,-0.1471719741821289
04:14:32,-4.8099932610057294E-4,-15613.0,-0.147918701171875
04:14:32,-4.779993323609233E-4,-6410.0,-0.1486682891845703
04:14:32,-4.7499933862127364E-4,-7463.0,-0.14941978454589844
04:14:32,-4.729993233922869E-4,-5436.0,-0.14717483520507812
04:14:32,-4.709993372671306E-4,8861.0,-0.14493370056152344
04:14:32,-0.0014669994125142694,-10622.0,-0.14269256591796875
04:14:32,-0.0014629994111601263,11849.0,-0.13945484161376953
04:14:32,-0.0014589994389098138,-25030.0,-0.13722610473632812
04:14:32,-4.559993976727128E-4,1537.0,-0.134002685546875
04:14:32,-4.519993963185698E-4,-7689.0,-0.132781982421875
04:14:32,-0.0014479994715657085,46573.0,-0.1295623779296875
04:14:32,-0.001443999499315396,103877.0,-0.12634658813476562
04:14:32,-4.40999458078295E-4,-5641.0,-0.12413692474365234
04:14:32,-4.3799946433864534E-4,-19999.0,-0.12193489074707031
04:14:32,-4.349994705989957E-4,84347.0,-0.12073421478271484
04:14:32,-4.3199947685934603E-4,7454.0,-0.11853218078613281
04:14:32,-4.289994831196964E-4,69913.0,-0.11633110046386719
04:14:32,-4.259994893800467E-4,62686.0,-0.11513233184814453
04:14:32,-4.2299949564039707E-4,24717.0,-0.11094474792480469
04:14:32,-4.1899949428625405E-4,33916.0,-0.10676288604736328
04:14:32,-0.001413999532815069,77971.0,-0.10358428955078125
04:14:32,-0.001408999552950263,71739.0,-0.10140800476074219
04:14:32,-0.0024029995838645846,10.0,-0.09923458099365234
04:14:32,-0.002396999567281455,-29656.0,-0.09606361389160156
04:14:32,-0.002390999550698325,42985.0,-0.09389591217041016
04:14:32,-0.0023849995632190257,61377.0,-0.09273147583007812
04:14:32,-0.001379999506752938,79767.0,-0.09057331085205078
04:14:32,-3.769994655158371E-4,95047.0,-0.08941459655761719
04:14:32,-3.739994717761874E-4,-223.0,-0.0882558822631836
04:14:32,6.29000598564744E-4,-52435.0,-0.08809852600097656
04:14:32,6.310005846899003E-4,4925.0,-0.08494853973388672
04:14:32,6.320006214082241E-4,5943.0,-0.0858011245727539
04:14:32,0.0016330006474163383,-30900.0,-0.08665084838867188
04:14:32,6.360006227623671E-4,-43185.0,-0.08550071716308594
04:14:32,6.390006456058472E-4,52042.0,-0.0843505859375
04:14:32,6.410006317310035E-4,10024.0,-0.08620262145996094
04:14:32,6.430006469599903E-4,-57521.0,-0.0860595703125
04:14:32,-0.007346999627770856,68370.0,-0.08791351318359375
04:14:32,-0.02232199933496304,75390.0,-0.08876609802246094
04:14:32,-0.038280998414848,114183.0,-0.0916147232055664
04:14:32,-0.0432360012200661,88498.0,-0.09146785736083984
04:14:32,-0.027206000449950807,48518.0,-0.0933237075805664
04:14:32,0.0017950003530131653,51463.0,-0.09517669677734375
04:14:32,0.014782999918679707,-46781.0,-0.09702491760253906
04:14:32,0.00877599987143185,-63111.0,-0.09887313842773438
04:14:32,7.770003139739856E-4,19742.0,-0.10172080993652344
04:14:32,-2.199997252319008E-4,-63170.0,-0.10457038879394531
04:14:32,-2.1699973149225116E-4,63776.0,-0.10841560363769531
04:14:32,-0.002211999802966602,-27289.0,-0.11225509643554688
04:14:32,-0.0012079997541150078,38239.0,-0.11609363555908203
04:14:33,-0.001204999745823443,-45660.0,-0.11892890930175781
04:14:33,-0.003198999707819894,52600.0,-0.12176513671875
04:14:33,-0.0031929997057886794,67871.0,-0.12559795379638672
04:14:33,-0.0021879997657379135,-43692.0,-0.1264324188232422
04:14:33,-0.002182999756769277,58674.0,-0.1282663345336914
04:14:33,-0.003176999671268277,75006.0,-0.1300983428955078
04:14:33,-0.003169999676174484,45232.0,-0.13292980194091797
04:14:33,-0.004162999830441549,4171.0,-0.13576030731201172
04:14:33,-0.005154999511432834,-26565.0,-0.13859081268310547
04:14:33,-0.0051469994796207175,28657.0,-0.1434164047241211
04:14:33,-0.006138999626273289,67448.0,-0.14523983001708984
04:14:33,-0.006130999623565003,89841.0,-0.1480560302734375
04:14:33,-0.006122999620856717,-30000.0,-0.15087223052978516
04:14:33,-0.008112999952572864,-11583.0,-0.15268993377685547
04:14:33,-0.009101999188715126,-3403.0,-0.1545114517211914
04:14:33,-0.011088999519415665,26188.0,-0.15732860565185547
04:14:33,-0.011075999522290658,-17819.0,-0.16114044189453125
04:14:33,-0.013060999826848274,7770.0,-0.164947509765625
04:14:33,-0.014044999985344475,-20916.0,-0.16775226593017578
04:14:33,-0.015027999235826428,-39332.0,-0.170562744140625
04:14:33,-0.01701000049342838,-383.0,-0.17237186431884766
04:14:33,-0.01799099879553978,-52517.0,-0.1741809844970703
04:14:33,-0.018970998955410323,-50469.0,-0.1769857406616211
04:14:33,-0.019949999117670814,-54524.0,-0.17679119110107422
04:14:33,-0.018929998972453177,-74937.0,-0.17660045623779297
04:14:33,-0.018909998965682462,37665.0,-0.17741107940673828
04:14:33,-0.01689200049440842,-7410.0,-0.17722320556640625
04:14:33,-0.015875000332016498,-59644.0,-0.1790313720703125
04:14:33,-0.012860999835538678,9912.0,-0.17883968353271484
04:14:33,-0.009850999340415001,-8556.0,-0.18164825439453125
04:14:33,-0.006844999763416126,1648.0,-0.1794586181640625
04:14:33,-0.004840999565203674,-14745.0,-0.18027305603027344
04:14:33,-0.0018409997719572857,-14767.0,-0.18108558654785156
04:14:33,1.580004027346149E-4,11914.0,-0.17789745330810547
04:14:33,0.0021560005843639374,67159.0,-0.17870521545410156
04:14:33,0.0021550005476456136,51719.0,-0.17451953887939453
04:14:33,0.0031530004052910954,30251.0,-0.17433738708496094
04:14:33,0.0031510003755101934,22996.0,-0.17216205596923828
04:14:33,0.004148000560235232,-10798.0,-0.1709880828857422
04:14:33,0.004145000682910904,-45496.0,-0.1678171157836914
04:14:33,0.005141000307048671,25163.0,-0.1666402816772461
04:14:33,0.004138000585953705,-33248.0,-0.16446781158447266
04:14:33,0.005134000341058709,-31123.0,-0.1632986068725586
04:14:33,0.004132000729441643,1647.0,-0.1631298065185547
04:14:33,0.004127000749576837,-27008.0,-0.16196250915527344
04:14:33,0.0031130007409956306,-21891.0,-0.16279029846191406
04:14:33,0.004082001541974023,2642.0,-0.1636190414428711
04:14:33,0.004036001624626806,-44421.0,-0.16344547271728516
04:14:33,0.002991001802001847,66075.0,-0.16227436065673828
04:14:33,0.003969002002122579,-23912.0,-0.16310596466064453
04:14:33,0.0039730019507260295,-8559.0,-0.16093826293945312
04:14:33,0.003983001994129154,29321.0,-0.16177082061767578
04:14:33,0.002985001804518106,46667.0,-0.16160106658935547
04:14:33,0.0029810017367708497,72175.0,-0.1604328155517578
04:14:33,0.003975001865910599,24082.0,-0.15926551818847656
04:14:33,0.003968001958128298,-1518.0,-0.15909767150878906
04:14:33,0.004959001831593923,69115.0,-0.1599292755126953
04:14:33,0.004951001934387023,-10742.0,-0.1597585678100586
04:14:33,0.0049420019386161584,-48541.0,-0.15758991241455078
04:14:33,0.0059320021100575104,-7497.0,-0.15642070770263672
04:14:33,0.0049230019430979155,20140.0,-0.15525150299072266
04:14:33,0.004914001794531941,62037.0,-0.15308189392089844
04:14:33,0.005903002216655295,23074.0,-0.15291309356689453
04:14:33,0.004894002231594641,-21988.0,-0.15274333953857422
04:14:33,0.005883002537302673,15855.0,-0.15557098388671875
04:14:33,0.005871002809726633,50545.0,-0.1553974151611328
04:14:33,0.0058590032131178305,34108.0,-0.15722179412841797
04:14:33,0.006845003488706425,-41614.0,-0.1590404510498047
04:14:33,0.005831003101775423,8502.0,-0.1608562469482422
04:14:33,0.00581700328621082,31950.0,-0.16167068481445312
04:14:33,0.006801003954024054,9389.0,-0.16448116302490234
04:14:33,0.0067830037587555125,7327.0,-0.1642932891845703
04:14:33,0.0067650035343831405,3229.0,-0.16609859466552734
04:14:33,0.005748003313783556,22705.0,-0.16590213775634766
04:14:33,0.00672900365316309,-24355.0,-0.16770267486572266
04:14:33,0.0067080035514663905,32996.0,-0.1685037612915039
04:14:33,0.006687003362458199,60576.0,-0.1703014373779297
04:14:33,0.00566600332967937,-20260.0,-0.17209339141845703
04:14:33,0.005643003125442192,-57053.0,-0.17188167572021484
04:14:33,0.0066180029534734786,-11017.0,-0.17366600036621094
04:14:33,0.005592002795310691,-55036.0,-0.17145538330078125
04:14:33,0.005565002327784896,-56069.0,-0.17324352264404297
04:14:33,0.006538002606248483,18697.0,-0.17302989959716797
04:14:33,0.005513002077350393,-13066.0,-0.17281341552734375
04:14:33,0.005489002156537026,26817.0,-0.17259788513183594
04:14:33,0.005466001166496426,-2928.0,-0.17238235473632812
04:14:33,0.00544600113062188,-51012.0,-0.17216777801513672
04:14:33,0.005429000884760171,-94015.0,-0.1719522476196289
04:14:33,0.004416000680066645,-84713.0,-0.17273330688476562
04:14:33,0.004406000662129372,-112215.0,-0.1745138168334961
04:14:33,0.004399000550620258,30129.0,-0.1752939224243164
04:14:33,0.004394000512547791,38217.0,-0.17707443237304688
04:14:33,0.0043910007807426155,42230.0,-0.17785263061523438
04:14:33,0.003389000950846821,6381.0,-0.1776294708251953
04:14:33,0.004387000575661659,-16082.0,-0.17740535736083984
04:14:33,0.004386000393424183,-39569.0,-0.17518234252929688
04:14:33,0.0033860006951726973,-4755.0,-0.17496013641357422
04:14:33,0.0033860006951726973,62779.0,-0.17274093627929688
04:14:33,0.0033860006951726973,25929.0,-0.1695261001586914
04:14:33,0.004385000502225012,-10902.0,-0.16631221771240234
04:14:33,0.0043830000213347375,115983.0,-0.1631011962890625
04:14:33,0.0033820003736764193,59665.0,-0.1598958969116211
04:14:33,0.0033820003736764193,100499.0,-0.15669536590576172
04:14:33,0.0033820003736764193,86078.0,-0.1544961929321289
04:14:33,0.0043799999402835965,10237.0,-0.14929962158203125
04:14:33,0.004376999568194151,-70607.0,-0.1471080780029297
04:14:33,0.003374999505467713,-41964.0,-0.1439228057861328
04:14:33,0.004372999363113195,-2087.0,-0.14074134826660156
04:14:33,0.003371999249793589,-59352.0,-0.1395578384399414
04:14:33,0.0033709993585944176,-20438.0,-0.1353769302368164
04:14:33,0.0023709991946816444,66494.0,-0.1342000961303711
04:14:33,0.003369999525602907,-33805.0,-0.13203048706054688
04:14:33,0.003369999525602907,1018.0,-0.13086318969726562
04:14:33,0.0023709991946816444,74633.0,-0.12869739532470703
04:14:33,0.0033709993585944176,46928.0,-0.1275339126586914
04:14:33,0.002371999085880816,85828.0,-0.12537384033203125
04:14:33,0.0023729995009489357,5988.0,-0.12421703338623047
04:14:33,0.002373999450355768,24420.0,-0.12306404113769531
04:14:33,0.002373999450355768,66374.0,-0.11891460418701172
04:14:33,0.0013759995927102864,55069.0,-0.11876678466796875
04:14:33,0.0013779999571852386,97018.0,-0.11362266540527344
04:14:33,0.001380000147037208,63107.0,-0.11148548126220703
04:14:33,0.0013820002786815166,22077.0,-0.1083536148071289
04:14:33,3.8500066148117185E-4,-5544.0,-0.10422515869140625
04:14:33,0.0013870007824152708,18977.0,-0.10010242462158203
04:14:34,3.9000099059194326E-4,118184.0,-0.09698200225830078
04:14:34,0.0013920008786953986,64848.0,-0.09386920928955078
04:14:34,3.9400096284225583E-4,93506.0,-0.08976459503173828
04:14:34,-6.019992870278656E-4,93426.0,-0.08666419982910156
04:14:34,-5.969994235783815E-4,74941.0,-0.08456707000732422
04:14:34,-0.0015919992583803833,-13043.0,-0.08347034454345703
04:14:34,-0.0015869989874772727,-41698.0,-0.08337593078613281
04:14:34,-0.0015819991240277886,77001.0,-0.08228397369384766
04:14:34,-0.00157699896954,39123.0,-0.08019638061523438
04:14:34,-5.719992914237082E-4,31915.0,-0.07911205291748047
04:14:34,-5.679989117197692E-4,20636.0,-0.07403278350830078
04:14:34,4.350011586211622E-4,73781.0,-0.07095527648925781
04:14:34,4.380011814646423E-4,-44974.0,-0.0688791275024414
04:14:34,4.400010802783072E-4,-3041.0,-0.06681060791015625
04:14:34,0.00144100101897493,31.0,-0.06474494934082031
04:14:34,4.4300081208348274E-4,15420.0,-0.06567668914794922
04:14:34,4.460011259652674E-4,-39846.0,-0.0666055679321289
04:14:34,-5.509986658580601E-4,-6058.0,-0.0655355453491211
04:14:34,-0.005543998850043863,-21425.0,-0.062470436096191406
04:14:34,-0.018522997270338237,6260.0,-0.06141185760498047
04:14:34,-0.03648399590747431,82012.0,-0.059352874755859375
04:14:34,-0.04743399619474076,46154.0,-0.05829429626464844
04:14:34,-0.0363949958991725,46092.0,-0.058231353759765625
04:14:34,-0.008383997657801956,28666.0,-0.057168006896972656
04:14:34,0.012606002972461283,-63406.0,-0.057106971740722656
04:14:34,0.010598002525512129,-17265.0,-0.05804443359375
04:14:34,0.0015990026004146785,27682.0,-0.06097698211669922
04:14:34,-0.0023959974641911685,-29591.0,-0.0619049072265625
04:14:34,-0.0023919975210446864,3234.0,-0.06283092498779297
04:14:34,-0.0033869973267428577,107658.0,-0.06375598907470703
04:14:34,-0.004380997532280162,67763.0,-0.06268310546875
04:14:34,-0.004374997253762558,-26420.0,-0.0626068115234375
04:14:34,-0.0033699971972964704,-91800.0,-0.06352424621582031
04:14:34,-0.004364997235825285,5506.0,-0.06343936920166016
04:14:34,-0.0033599969756323844,43376.0,-0.0653524398803711
04:14:34,-0.004353997035650536,-21153.0,-0.0652627944946289
04:14:34,-0.0053469967970158905,-25181.0,-0.06716728210449219
04:14:34,-0.005339996889233589,-21089.0,-0.06906700134277344
04:14:34,-0.006330996809992939,11696.0,-0.07095813751220703
04:14:34,-0.00732099698507227,-3629.0,-0.0728464126586914
04:14:34,-0.00831099710194394,-45570.0,-0.07572555541992188
04:14:34,-0.008300996792968363,66036.0,-0.0805959701538086
04:14:34,-0.00828999697114341,-32229.0,-0.08345699310302734
04:14:34,-0.009277996141463518,39455.0,-0.0873098373413086
04:14:34,-0.010264996177284047,-28093.0,-0.0891571044921875
04:14:34,-0.011251996416831389,-4584.0,-0.08900260925292969
04:14:34,-0.012237996561452746,33278.0,-0.09084510803222656
04:14:34,-0.013222996858530678,-71078.0,-0.09168243408203125
04:14:34,-0.01420599693665281,13964.0,-0.0905160903930664
04:14:34,-0.015187996366876177,35414.0,-0.09034347534179688
04:14:34,-0.017168997874250636,9848.0,-0.09116172790527344
04:14:34,-0.018148996023228392,1722.0,-0.0899810791015625
04:14:34,-0.019126996718114242,22183.0,-0.08979511260986328
04:14:34,-0.020104997107409872,-32988.0,-0.08960628509521484
04:14:34,-0.021081997831061017,36618.0,-0.08941459655761719
04:14:34,-0.022057997830415843,48893.0,-0.08921432495117188
04:14:34,-0.021034997909737285,16122.0,-0.09000873565673828
04:14:34,-0.02001299791936617,-4290.0,-0.08979415893554688
04:14:34,-0.018992997787790955,-18577.0,-0.0905771255493164
04:14:34,-0.016973999598121736,3934.0,-0.09135818481445312
04:14:34,-0.0149569981113018,-6272.0,-0.09212779998779297
04:14:34,-0.011942998433369212,-21584.0,-0.09189414978027344
04:14:34,-0.008933997996791732,-40002.0,-0.09365177154541016
04:14:34,-0.005927998332481366,72564.0,-0.0904083251953125
04:14:34,-0.0039229985341080464,-22582.0,-0.09116172790527344
04:14:34,-0.0029199984128354117,66425.0,-0.08991241455078125
04:14:34,-0.0019169984007021412,69430.0,-0.09165668487548828
04:14:34,-9.12998519197572E-4,-35982.0,-0.09239482879638672
04:14:34,9.000152931548655E-5,-30881.0,-0.09312915802001953
04:14:34,9.300155215896666E-5,30526.0,-0.09386253356933594
04:14:34,9.600146586308256E-5,64333.0,-0.09459304809570312
04:14:34,1.0000135807786137E-4,-28819.0,-0.09731864929199219
04:14:34,1.0400106839369982E-4,-48305.0,-0.0980386734008789
04:14:34,1.0700109123717993E-4,-15518.0,-0.0967559814453125
04:14:34,1.1000104859704152E-4,-8347.0,-0.09647274017333984
04:14:34,1.1300107144052163E-4,-7398.0,-0.09518718719482422
04:14:34,1.1400099901948124E-4,-1248.0,-0.09290599822998047
04:14:34,1.0800113523146138E-4,-63699.0,-0.09162712097167969
04:14:34,8.800157229416072E-5,31487.0,-0.08835124969482422
04:14:34,5.100157068227418E-5,74381.0,-0.08707332611083984
04:14:34,5.0015673878078815E-6,-43365.0,-0.08679389953613281
04:14:34,-2.5998311684816144E-5,26222.0,-0.08551883697509766
04:14:34,-0.001026998286761227,45582.0,-0.08424568176269531
04:14:34,-0.0010109984250448178,27077.0,-0.08497810363769531
04:14:34,-9.982660458263126E-7,63919.0,-0.08571052551269531
04:14:34,-9.982660458263126E-7,-24152.0,-0.08744335174560547
04:14:34,-1.9983128822786966E-6,33122.0,-0.09017467498779297
04:14:34,-1.9983128822786966E-6,-46774.0,-0.09090805053710938
04:14:34,-2.998359605044243E-6,-47742.0,-0.091644287109375
04:14:34,9.94001607523387E-4,4456.0,-0.09138679504394531
04:14:34,9.900016566462E-4,-16052.0,-0.09313011169433594
04:14:34,9.860016343736788E-4,-38599.0,-0.09187984466552734
04:14:34,9.820016857702285E-4,21737.0,-0.09163284301757812
04:14:34,9.790016647457378E-4,24779.0,-0.09139060974121094
04:14:34,9.760016509972047E-4,29883.0,-0.09215259552001953
04:14:34,9.720017624204047E-4,-54081.0,-0.09092235565185547
04:14:34,9.680018156359438E-4,-20296.0,-0.0916910171508789
04:14:34,9.630018794268835E-4,-8003.0,-0.09346199035644531
04:14:34,9.580018268025015E-4,-44900.0,-0.09123706817626953
04:14:34,9.520020212221425E-4,56488.0,-0.09401226043701172
04:14:34,9.450020588701591E-4,-40782.0,-0.09079265594482422
04:14:34,-6.099796883063391E-5,23691.0,-0.09157466888427734
04:14:34,-6.699801451759413E-5,3189.0,-0.09235477447509766
04:14:34,-7.399798050755635E-5,46177.0,-0.0911407470703125
04:14:34,-8.199811418307945E-5,39052.0,-0.08993053436279297
04:14:34,-9.099797171074897E-5,-46893.0,-0.0897207260131836
04:14:34,-1.0099766222992912E-4,29853.0,-0.08950996398925781
04:14:34,8.860024900059216E-4,-7046.0,-0.09029769897460938
04:14:34,8.720026817172766E-4,-63291.0,-0.09208297729492188
04:14:34,8.570031059207395E-4,-20353.0,-0.09186935424804688
04:14:34,8.400030492339283E-4,-33651.0,-0.09365272521972656
04:14:34,-1.759969163686037E-4,-20317.0,-0.09643173217773438
04:14:34,-1.9199652888346463E-4,-43832.0,-0.0982046127319336
04:14:34,-2.0799633057322353E-4,-11010.0,-0.09897613525390625
04:14:34,-2.239965251646936E-4,-97979.0,-0.10174179077148438
04:14:34,-2.389962610322982E-4,28934.0,-0.10050487518310547
04:14:34,7.480035710614175E-4,21716.0,-0.10126018524169922
04:14:34,-2.609964576549828E-4,61612.0,-0.10101127624511719
04:14:34,-2.6699667796492577E-4,20602.0,-0.09876060485839844
04:14:34,-2.699964097701013E-4,-32598.0,-0.10050392150878906
04:14:34,-2.689964312594384E-4,53325.0,-0.09823989868164062
04:14:34,-0.0012629963748622686,42968.0,-0.09896659851074219
04:14:34,-0.0012549963721539825,-33835.0,-0.09768486022949219
04:14:34,-0.0012439965648809448,-17451.0,-0.09839630126953125
04:14:34,-0.001227996457600966,27492.0,-0.09710121154785156
04:14:35,-0.0012059963046340272,-38068.0,-0.09679508209228516
04:14:35,-1.7999662668444216E-4,64315.0,-0.09548282623291016
04:14:35,-1.5299681399483234E-4,23336.0,-0.09516048431396484
04:14:35,-0.0011239975283388048,89762.0,-0.09582901000976562
04:14:35,-0.0010929978161584586,6807.0,-0.09449195861816406
04:14:35,-0.002059998136246577,19070.0,-0.09614276885986328
04:14:35,-0.002023998491495149,-79109.0,-0.0967864990234375
04:14:35,-9.86998702501296E-4,-11556.0,-0.09742546081542969
04:14:35,-9.489984768151771E-4,-38147.0,-0.09805488586425781
04:14:35,-0.0019089986381004564,-25906.0,-0.10067081451416016
04:14:35,-0.001866999446065165,-24884.0,-0.10128402709960938
04:14:35,-0.0018219995981780812,-51412.0,-0.1028890609741211
04:14:35,-0.001774999764165841,-38103.0,-0.10348701477050781
04:14:35,-0.001722999702906236,-33977.0,-0.10307598114013672
04:14:35,-6.649992719758302E-4,-14514.0,-0.10365676879882812
04:14:35,-0.0015999998431652784,35610.0,-0.10323429107666016
04:14:35,-5.3299983846955E-4,-6337.0,-0.10280609130859375
04:14:35,-4.659999394789338E-4,22241.0,-0.10337448120117188
04:14:35,-3.989997785538435E-4,-29967.0,-0.1049356460571289
04:14:35,-0.0013329998473636806,-17657.0,-0.10449886322021484
04:14:35,-0.001269999600481242,8900.0,-0.1050577163696289
04:14:35,-0.0012089997180737555,-23876.0,-0.10561752319335938
04:14:35,-0.0011499993270263076,25233.0,-0.10717105865478516
04:14:35,-0.0010929983109235764,3735.0,-0.1097249984741211
04:14:35,-0.001037997892126441,-52490.0,-0.11028003692626953
04:14:35,-9.859978454187512E-4,2841.0,-0.11383342742919922
04:14:35,-9.359978139400482E-4,68317.0,-0.115386962890625
04:14:35,-8.899974636733532E-4,-17614.0,-0.1189422607421875
04:14:35,-8.469972526654601E-4,-27831.0,-0.11950206756591797
04:14:35,-8.069968316704035E-4,50010.0,-0.1230630874633789
04:14:35,-7.709967903792858E-4,19313.0,-0.12462806701660156
04:14:35,-7.379966555163264E-4,-44100.0,-0.1271953582763672
04:14:35,-7.079963106662035E-4,-9271.0,-0.12976837158203125
04:14:35,-6.789969047531486E-4,-8242.0,-0.12834644317626953
04:14:35,-6.519971648231149E-4,-66531.0,-0.13092994689941406
04:14:35,-0.001625998062081635,-23580.0,-0.13051700592041016
04:14:35,-0.0016009993851184845,-79809.0,-0.13111400604248047
04:14:35,-0.0015769994352012873,-3033.0,-0.1327190399169922
04:14:35,-0.002552999882027507,-39908.0,-0.13233089447021484
04:14:35,-0.002532000537030399,-4085.0,-0.13394737243652344
04:14:35,-0.0025150009896606207,-14407.0,-0.13457202911376953
04:14:35,-0.0015000010607764125,-10339.0,-0.13421058654785156
04:14:35,-0.0014870011946186423,40886.0,-0.13486003875732422
04:14:35,-4.780011950060725E-4,-17434.0,-0.13351821899414062
04:14:35,-4.700012505054474E-4,-63485.0,-0.1361837387084961
04:14:35,5.349987186491489E-4,14363.0,-0.1368579864501953
04:14:35,5.389986326918006E-4,24479.0,-0.14053916931152344
04:14:35,0.0015409988118335605,18255.0,-0.14223098754882812
04:14:35,5.439987871795893E-4,-58507.0,-0.1429309844970703
04:14:35,5.469988100230694E-4,47991.0,-0.14563560485839844
04:14:35,5.479987012222409E-4,66310.0,-0.14635086059570312
04:14:35,5.48998941667378E-4,17102.0,-0.14707469940185547
04:14:35,-0.005445001181215048,32453.0,-0.14780902862548828
04:14:35,-0.01942700077779591,26257.0,-0.15055084228515625
04:14:35,-0.03539400186855346,-32139.0,-0.1542959213256836
04:14:35,-0.04435400140937418,18041.0,-0.15604686737060547
04:14:35,-0.03232700319495052,38440.0,-0.15880298614501953
04:14:35,-0.004328001290559769,24049.0,-0.16056537628173828
04:14:35,0.013651998597197235,-65965.0,-0.1603384017944336
04:14:35,0.010633998201228678,47699.0,-0.16011905670166016
04:14:35,6.259987130761147E-4,49712.0,-0.1589059829711914
04:14:35,-0.0013790014199912548,8671.0,-0.15669727325439453
04:14:35,-0.001385001465678215,22981.0,-0.15549468994140625
04:14:35,-0.0023900014348328114,-4653.0,-0.15329551696777344
04:14:35,-0.002394001348875463,29122.0,-0.1541004180908203
04:14:35,-0.0023980014957487583,11657.0,-0.1529073715209961
04:14:35,-0.003402001108042896,65793.0,-0.15371322631835938
04:14:35,-0.003405001130886376,-709.0,-0.15451908111572266
04:14:35,-0.0024090014630928636,-14987.0,-0.15432453155517578
04:14:35,-0.0034120011841878295,45321.0,-0.1531352996826172
04:14:35,-0.003416001098230481,21687.0,-0.1519451141357422
04:14:35,-0.003420001012273133,-2883.0,-0.15175628662109375
04:14:35,-0.003423001035116613,27857.0,-0.15056514739990234
04:14:35,-0.0054240013705566525,31964.0,-0.14737987518310547
04:14:35,-0.006424001534469426,44204.0,-0.14519786834716797
04:14:35,-0.006424001534469426,-22279.0,-0.14201831817626953
04:14:35,-0.007423000759445131,-5962.0,-0.13784408569335938
04:14:35,-0.007421000744216144,-77552.0,-0.1346721649169922
04:14:35,-0.0074190006125718355,-54945.0,-0.13250064849853516
04:14:35,-0.008416000986471772,9582.0,-0.12833404541015625
04:14:35,-0.009412001236341894,-17033.0,-0.1251678466796875
04:14:35,-0.011407001409679651,-21106.0,-0.12200546264648438
04:14:35,-0.012401001527905464,65879.0,-0.11884307861328125
04:14:35,-0.013394000823609531,64726.0,-0.1126861572265625
04:14:35,-0.0133870008867234,-14043.0,-0.11252880096435547
04:14:35,-0.015378002193756402,29944.0,-0.109375
04:14:35,-0.01636700052767992,-23311.0,-0.10822200775146484
04:14:35,-0.016355000669136643,12498.0,-0.1050710678100586
04:14:35,-0.017342000966891646,-24308.0,-0.09992790222167969
04:14:35,-0.017330000991933048,-47842.0,-0.0967864990234375
04:14:35,-0.016320000868290663,-14080.0,-0.09065055847167969
04:14:35,-0.015310002490878105,-14052.0,-0.08652210235595703
04:14:35,-0.013302001520060003,-22191.0,-0.0823984146118164
04:14:35,-0.01129800220951438,1312.0,-0.07927894592285156
04:14:35,-0.00829800171777606,-32508.0,-0.07416725158691406
04:14:35,-0.0063010023441165686,-764.0,-0.07006072998046875
04:14:35,-0.003307001432403922,-65202.0,-0.06496143341064453
04:14:35,-3.160014748573303E-4,-37566.0,-0.0628662109375
04:14:35,0.0016729984199628234,-35420.0,-0.0567779541015625
04:14:35,0.002660998492501676,13774.0,-0.05669403076171875
04:14:35,0.0036489987978711724,-62893.0,-0.053612709045410156
04:14:35,0.00463599874638021,-79191.0,-0.05253314971923828
04:14:35,0.005622998927719891,-22918.0,-0.050457000732421875
04:14:35,0.005609998945146799,-3331.0,-0.049381256103515625
04:14:35,0.006595998769626021,32562.0,-0.046314239501953125
04:14:35,0.007579999160952866,41724.0,-0.04524517059326172
04:14:35,0.007563999388366938,85621.0,-0.042181968688964844
04:14:35,0.007549999165348709,-38178.0,-0.03912544250488281
04:14:35,0.006534999120049179,18170.0,-0.036072731018066406
04:14:35,0.006509999162517488,-25849.0,-0.03802013397216797
04:14:35,0.006467999774031341,-21727.0,-0.03796863555908203
04:14:35,0.006411000154912472,-5331.0,-0.03891944885253906
04:14:35,0.006356002297252417,11096.0,-0.04086875915527344
04:14:35,0.005326003418304026,68357.0,-0.042816162109375
04:14:35,0.005323003395460546,119387.0,-0.04676532745361328
04:14:35,0.005325003294274211,2596.0,-0.0477142333984375
04:14:35,0.0053190033650025725,-20941.0,-0.04966259002685547
04:14:35,0.005308003863319755,35363.0,-0.05160999298095703
04:14:35,0.005297003546729684,-24067.0,-0.0515594482421875
04:14:35,0.006285003386437893,-74196.0,-0.05350971221923828
04:14:35,0.006272003171034157,-28131.0,-0.05545616149902344
04:14:35,0.0062590030720457435,-34281.0,-0.05640411376953125
04:14:35,0.0062460030894726515,-38335.0,-0.058350563049316406
04:14:35,0.0062330031068995595,-27074.0,-0.06029510498046875
04:14:35,0.006221003015525639,-37291.0,-0.0642385482788086
04:14:36,0.0062070031417533755,-383.0,-0.06818008422851562
04:14:36,0.006193003035150468,48727.0,-0.07211685180664062
04:14:36,0.0061800029361620545,-2440.0,-0.07705497741699219
04:14:36,0.006167002837173641,-49529.0,-0.08198738098144531
04:14:36,0.006153002846986055,-77111.0,-0.08691787719726562
04:14:36,0.006139002740383148,-57588.0,-0.09184932708740234
04:14:36,0.006126002641394734,-5400.0,-0.09777641296386719
04:14:36,0.007111002807505429,72363.0,-0.10270404815673828
04:14:36,0.006097002769820392,-10614.0,-0.10962867736816406
04:14:36,0.006083002430386841,47667.0,-0.11655235290527344
04:14:36,0.005068002617917955,40382.0,-0.12247657775878906
04:14:36,0.006051002419553697,-54823.0,-0.13039875030517578
04:14:36,0.00603400229010731,-5662.0,-0.1363210678100586
04:14:36,0.006016002385877073,11737.0,-0.14223861694335938
04:14:36,0.005996002466417849,57753.0,-0.14715576171875
04:14:36,0.005975002481136471,66818.0,-0.1520681381225586
04:14:36,0.005952002247795463,69827.0,-0.1569814682006836
04:14:36,0.00692600233014673,47202.0,-0.16189289093017578
04:14:36,0.005901001917663962,-3999.0,-0.16480255126953125
04:14:36,0.0058750013704411685,36899.0,-0.16771316528320312
04:14:36,0.005848000873811543,49186.0,-0.1706218719482422
04:14:36,0.006820000824518502,70632.0,-0.17153072357177734
04:14:36,0.006794000568334013,33679.0,-0.1744384765625
04:14:36,0.005771000578533858,26429.0,-0.17534923553466797
04:14:36,0.005750000709667802,44861.0,-0.1782550811767578
04:14:36,0.005731000506784767,-21593.0,-0.18016338348388672
04:14:36,0.005715000152122229,-18468.0,-0.1840686798095703
04:14:36,0.005703000060748309,71614.0,-0.1869678497314453
04:14:36,0.0056940000504255295,71564.0,-0.18686771392822266
04:14:36,0.005687000113539398,-76813.0,-0.1897602081298828
04:14:36,0.005682000133674592,12293.0,-0.18765544891357422
04:14:36,0.005680000118445605,-29660.0,-0.1875476837158203
04:14:36,0.005679000169038773,-8188.0,-0.18843746185302734
04:14:36,0.005678000161424279,-43976.0,-0.18732452392578125
04:14:36,0.0066760003683157265,21580.0,-0.18621063232421875
04:14:36,0.00667400035308674,6247.0,-0.18409061431884766
04:14:36,0.006671000388450921,-20380.0,-0.18396854400634766
04:14:36,0.00766700052190572,-45031.0,-0.18184185028076172
04:14:36,0.006664000335149467,52183.0,-0.1807098388671875
04:14:36,0.0066600003046914935,-21605.0,-0.1765756607055664
04:14:36,0.005656000052113086,47033.0,-0.17543315887451172
04:14:36,0.006651000177953392,-18456.0,-0.17228412628173828
04:14:36,0.006647000263910741,6146.0,-0.16912841796875
04:14:36,0.006643000233452767,-29661.0,-0.16496562957763672
04:14:36,0.006639000261202455,11325.0,-0.1607961654663086
04:14:36,0.006635000230744481,13313.0,-0.1566181182861328
04:14:36,0.006630000192672014,-18371.0,-0.15143299102783203
04:14:36,0.0066250000963918865,49124.0,-0.14923763275146484
04:14:36,0.006621000065933913,-34804.0,-0.1450338363647461
04:14:36,0.006616999860852957,53148.0,-0.14381980895996094
04:14:36,0.006612999888602644,-20530.0,-0.14059925079345703
04:14:36,0.006607999966945499,26568.0,-0.13936805725097656
04:14:36,0.006602999928873032,1976.0,-0.13812541961669922
04:14:36,0.005599999683909118,5051.0,-0.1348733901977539
04:14:36,0.005596999661065638,47999.0,-0.13261127471923828
04:14:36,0.005592999572400004,63261.0,-0.12934112548828125
04:14:36,0.00658799969824031,24254.0,-0.1250619888305664
04:14:36,0.0065839996677823365,-49459.0,-0.12177371978759766
04:14:36,0.006579999695532024,83543.0,-0.1174783706665039
04:14:36,0.005576999508775771,23093.0,-0.1131753921508789
04:14:36,0.0055739995441399515,-492.0,-0.11086463928222656
04:14:36,0.006569999735802412,-23003.0,-0.10854625701904297
04:14:36,0.00656599982175976,56808.0,-0.10721778869628906
04:14:36,0.0055639996426180005,64860.0,-0.1058807373046875
04:14:36,0.005561999685596675,34053.0,-0.10653305053710938
04:14:36,0.005558999779168516,44212.0,-0.10617637634277344
04:14:36,0.005555999698117375,24770.0,-0.1068105697631836
04:14:36,0.005552999733481556,-9105.0,-0.10843658447265625
04:14:36,0.005548999761231244,-22463.0,-0.10805416107177734
04:14:36,0.00554499973077327,10337.0,-0.11066627502441406
04:14:36,0.004542000009678304,7234.0,-0.10927009582519531
04:14:36,0.0035399998887442052,63512.0,-0.110870361328125
04:14:36,0.0035379998153075576,8134.0,-0.1114654541015625
04:14:36,0.003536999865900725,-67603.0,-0.11005783081054688
04:14:36,0.004534999956376851,-35817.0,-0.11364459991455078
04:14:36,0.005531999806407839,-15302.0,-0.11322975158691406
04:14:36,0.006526999932248145,-30586.0,-0.1158132553100586
04:14:36,0.006521999952383339,-50994.0,-0.11739253997802734
04:14:36,0.005518999765627086,5314.0,-0.1169748306274414
04:14:36,0.005515999800991267,-21353.0,-0.11855602264404297
04:14:36,0.006511999934446067,-29469.0,-0.1191396713256836
04:14:36,0.005508999805897474,19674.0,-0.12072563171386719
04:14:36,0.005505999899469316,34990.0,-0.12131595611572266
04:14:36,0.006502000091131777,-65302.0,-0.1229104995727539
04:14:36,0.006496999994851649,-31540.0,-0.12351131439208984
04:14:36,0.001496999990195036,-42736.0,-0.124114990234375
04:14:36,-0.010490999964531511,-23268.0,-0.124725341796875
04:14:36,-0.026463000802323222,-69234.0,-0.1243429183959961
04:14:36,-0.03942199930315837,-694.0,-0.12196826934814453
04:14:36,-0.03138900164049119,-19121.0,-0.12060165405273438
04:14:36,-0.004383000137750059,-41650.0,-0.11924457550048828
04:14:36,0.01859899895498529,59697.0,-0.11789608001708984
04:14:36,0.019579999207053334,-41723.0,-0.11755752563476562
04:14:36,0.009571999486070126,68756.0,-0.11623001098632812
04:14:36,0.004569000098854303,33912.0,-0.11690902709960938
04:14:36,0.0035669998615048826,-35661.0,-0.1175985336303711
04:14:36,0.002565000031609088,-8037.0,-0.11929607391357422
04:14:36,0.0025630000163801014,18579.0,-0.12000274658203125
04:14:36,0.002562000008765608,34980.0,-0.11971759796142578
04:14:36,0.0025610000011511147,-64338.0,-0.12044334411621094
04:14:36,0.001560000004246831,-64281.0,-0.11817646026611328
04:14:36,0.0015589999966323376,4329.0,-0.11792182922363281
04:14:36,5.589999491348863E-4,-18245.0,-0.11767578125
04:14:36,-4.4000009074807167E-4,-6939.0,-0.11743927001953125
04:14:36,-0.0014380001812241971,-26380.0,-0.11421489715576172
04:14:36,-0.002434000140056014,-29432.0,-0.1120004653930664
04:14:36,-0.003429000382311642,27946.0,-0.108795166015625
04:14:36,-0.0034240004024468362,-16119.0,-0.10560131072998047
04:14:36,-0.004419000120833516,6372.0,-0.10141372680664062
04:14:36,-0.005412000289652497,-46807.0,-0.1002340316772461
04:14:36,-0.006405000516679138,19746.0,-0.09505844116210938
04:14:36,-0.008395999786444008,1255.0,-0.09288787841796875
04:14:36,-0.00838699983432889,-111166.0,-0.09171867370605469
04:14:36,-0.009375999914482236,-81445.0,-0.0875558853149414
04:14:36,-0.011363000317942351,-22034.0,-0.08339786529541016
04:14:36,-0.0123490005498752,51610.0,-0.08024311065673828
04:14:36,-0.014332999882753938,-35465.0,-0.07809066772460938
04:14:36,-0.015317001088988036,-25207.0,-0.07693862915039062
04:14:36,-0.017298999533522874,-67120.0,-0.07578563690185547
04:14:36,-0.01827899948693812,4594.0,-0.07463264465332031
04:14:36,-0.01925799937453121,-101827.0,-0.072479248046875
04:14:36,-0.021235999709460884,38437.0,-0.06932640075683594
04:14:36,-0.020215999567881227,-4530.0,-0.06617259979248047
04:14:36,-0.02019499964080751,-3468.0,-0.06002330780029297
04:14:36,-0.01917499938281253,-30083.0,-0.05887126922607422
04:14:37,-0.017156999034341425,9886.0,-0.05572032928466797
04:14:37,-0.014140999468509108,26269.0,-0.053566932678222656
04:14:37,-0.012126999965403229,54828.0,-0.05241203308105469
04:14:37,-0.010113999422173947,34360.0,-0.04925537109375
04:14:37,-0.007103999610990286,-48552.0,-0.045098304748535156
04:14:37,-0.004096999007742852,4599.0,-0.04293632507324219
04:14:37,-0.002091999107506126,-44492.0,-0.041769981384277344
04:14:37,-8.899916429072618E-5,-34199.0,-0.04060077667236328
04:14:37,9.130008984357119E-4,-31156.0,-0.03643035888671875
04:14:37,0.0019140008953399956,-46573.0,-0.03526115417480469
04:14:37,0.002915001008659601,-31220.0,-0.030091285705566406
04:14:37,0.0029130010516382754,-103793.0,-0.02692413330078125
04:14:37,0.0029000009526498616,-6487.0,-0.02475738525390625
04:14:37,0.002871000557206571,-21870.0,-0.0215911865234375
04:14:37,0.0038260003202594817,64057.0,-0.018426895141601562
04:14:37,0.0027830004110001028,-76198.0,-0.017261505126953125
04:14:37,0.0027640004409477115,-86457.0,-0.01509857177734375
04:14:37,0.002773000451270491,-44474.0,-0.014933586120605469
04:14:37,0.0027870003250427544,-28043.0,-0.015766143798828125
04:14:37,0.0027920002466998994,30267.0,-0.015599250793457031
04:14:37,0.0027920002466998994,-464.0,-0.015432357788085938
04:14:37,0.002793000254314393,24032.0,-0.015265464782714844
04:14:37,0.0017930002068169415,-13883.0,-0.015097618103027344
04:14:37,0.0017920001992024481,40329.0,-0.01593017578125
04:14:37,0.0017910003080032766,-12876.0,-0.013765335083007812
04:14:37,7.900002528913319E-4,21953.0,-0.014598846435546875
04:14:37,7.880002958700061E-4,43398.0,-0.01343536376953125
04:14:37,7.880002958700061E-4,-46606.0,-0.014269828796386719
04:14:37,0.001787000335752964,-4664.0,-0.014102935791015625
04:14:37,0.0017850003787316382,-15924.0,-0.015936851501464844
04:14:37,0.0017830004217103124,532.0,-0.016767501831054688
04:14:37,0.0027800003881566226,-52625.0,-0.017597198486328125
04:14:37,0.002776000474113971,44603.0,-0.01942729949951172
04:14:37,0.0027720005018636584,2598.0,-0.017256736755371094
04:14:37,0.0027670005219988525,-31150.0,-0.018087387084960938
04:14:37,0.00376000051619485,-84312.0,-0.016916275024414062
04:14:37,0.0037520004552789032,31386.0,-0.015748023986816406
04:14:37,0.004743000550661236,-45349.0,-0.0155792236328125
04:14:37,0.0047330004163086414,-58575.0,-0.014409065246582031
04:14:37,0.004723000223748386,70420.0,-0.015239715576171875
04:14:37,0.004712000081781298,-55455.0,-0.01506805419921875
04:14:37,0.004700000048615038,-84011.0,-0.015895843505859375
04:14:37,0.004686000058427453,8102.0,-0.0167236328125
04:14:37,0.004672000126447529,-12388.0,-0.019547462463378906
04:14:37,0.004657000012230128,18365.0,-0.018369674682617188
04:14:37,0.0036410000175237656,-63438.0,-0.020191192626953125
04:14:37,0.003624000120908022,73738.0,-0.019010543823242188
04:14:37,0.0036050002090632915,26662.0,-0.01783275604248047
04:14:37,0.0035860000643879175,-50138.0,-0.015656471252441406
04:14:37,0.004566000308841467,26640.0,-0.0144805908203125
04:14:37,0.004546000389382243,-10196.0,-0.015303611755371094
04:14:37,0.004527000361122191,-37818.0,-0.016126632690429688
04:14:37,0.004511000297497958,-43906.0,-0.016945838928222656
04:14:37,0.004497000249102712,-13238.0,-0.01676464080810547
04:14:37,0.0044870002020616084,-17349.0,-0.018579483032226562
04:14:37,0.003481000050669536,87000.0,-0.019392967224121094
04:14:37,0.0034780001442413777,95123.0,-0.023200035095214844
04:14:37,0.003477000107523054,-39060.0,-0.02500629425048828
04:14:37,0.003478000173345208,-45227.0,-0.027807235717773438
04:14:37,0.003481000108877197,-34012.0,-0.03060436248779297
04:14:37,0.0034850001393351704,-64707.0,-0.034397125244140625
04:14:37,0.0034900001483038068,1742.0,-0.03618621826171875
04:14:37,0.0034950001281686127,35402.0,-0.037972450256347656
04:14:37,0.0025010002427734435,12836.0,-0.041754722595214844
04:14:37,0.0025070002302527428,-39395.0,-0.045533180236816406
04:14:37,0.003512000141199678,43514.0,-0.04730701446533203
04:14:37,0.002518000139389187,7669.0,-0.05107879638671875
04:14:37,0.0015260002110153437,8678.0,-0.05484294891357422
04:14:37,0.0015330002061091363,-24142.0,-0.05560493469238281
04:14:37,0.0015390001935884356,-34278.0,-0.05736541748046875
04:14:37,0.0015450002392753959,18977.0,-0.05912208557128906
04:14:37,0.001551000284962356,-10666.0,-0.060875892639160156
04:14:37,0.0015570003306493163,1612.0,-0.06262683868408203
04:14:37,0.0015620003105141222,-48537.0,-0.061377525329589844
04:14:37,0.0015670002321712673,17958.0,-0.06212806701660156
04:14:37,0.0015720002702437341,-82304.0,-0.06287670135498047
04:14:37,0.00157700025010854,-62799.0,-0.06362533569335938
04:14:37,0.001582000229973346,10999.0,-0.06637191772460938
04:14:37,5.88000169955194E-4,-14574.0,-0.06711959838867188
04:14:37,5.940000992268324E-4,5884.0,-0.06986713409423828
04:14:37,0.0015990002430044115,-112722.0,-0.07261371612548828
04:14:37,6.060003070160747E-4,-84985.0,-0.07735729217529297
04:14:37,6.130003021098673E-4,-33796.0,-0.0810995101928711
04:14:37,6.210003048181534E-4,-73682.0,-0.08384037017822266
04:14:37,6.290003075264394E-4,-13285.0,-0.08558177947998047
04:14:37,-3.6299979547038674E-4,-9219.0,-0.08832168579101562
04:14:37,6.440002471208572E-4,-58318.0,-0.09006214141845703
04:14:37,0.0016500002820976079,-52166.0,-0.09180164337158203
04:14:37,6.560002220794559E-4,-70545.0,-0.09254264831542969
04:14:37,-3.3699965570122004E-4,-47959.0,-0.09328174591064453
04:14:37,6.690003792755306E-4,-44822.0,-0.09701919555664062
04:14:37,6.750004249624908E-4,-38640.0,-0.09975433349609375
04:14:37,-3.1799962744116783E-4,-77434.0,-0.10348796844482422
04:14:37,-3.119996399618685E-4,-3770.0,-0.1052236557006836
04:14:37,-3.0599971069023013E-4,-9873.0,-0.1099557876586914
04:14:37,-2.999996650032699E-4,-34442.0,-0.11268806457519531
04:14:37,-2.939996775239706E-4,6595.0,-0.11542034149169922
04:14:37,-0.0012869996717199683,-69127.0,-0.11915111541748047
04:14:37,-0.0012799996184185147,-70025.0,-0.11988258361816406
04:14:37,-0.0012729995069094002,-4471.0,-0.12161445617675781
04:14:37,-2.669994719326496E-4,23089.0,-0.1223459243774414
04:14:37,-0.0012599994661286473,36322.0,-0.12308120727539062
04:14:37,-0.002251999278087169,-82386.0,-0.1248178482055664
04:14:37,-0.002244999399408698,-5631.0,-0.12356281280517578
04:14:37,-0.003235999494791031,-9695.0,-0.12630844116210938
04:14:37,-0.0032269994262605906,21972.0,-0.12705516815185547
